"Time [ms]","Current(PhaseA) [A]","Current(PhaseB) [A]","Current(PhaseC) [A]"
0,0,0,0
0.01,3.99086757520912e-06,0.0382433394914396,-0.0382473303590149
0.02,2.96730234767319e-06,0.077643556319093,-0.0776465236214409
0.03,1.94373712013726e-06,0.117043773146746,-0.117045716883867
0.04,9.20171892601335e-07,0.1564439899744,-0.156444910146293
0.05,-1.03393334934593e-07,0.195844206802053,-0.195844103408719
0.06,-1.12695856247052e-06,0.235244423629707,-0.235243296671145
0.07,-2.15052379000645e-06,0.27464464045736,-0.274642489933571
0.08,-3.17408901754238e-06,0.314044857285014,-0.314041683195997
0.09,-4.19765424507831e-06,0.353445074112667,-0.353440876458423
0.1,-5.22121947261423e-06,0.392845290940321,-0.392840069720849
0.11,-6.24478470015016e-06,0.432245507767974,-0.432239262983275
0.12,-7.26834992768609e-06,0.471645724595627,-0.471638456245701
0.13,-8.29191515522202e-06,0.511045941423281,-0.511037649508127
0.14,-9.31548038275794e-06,0.550446158250934,-0.550436842770553
0.15,-1.03390456102939e-05,0.589846375078588,-0.589836036032979
0.16,-1.13626108378298e-05,0.629246591906241,-0.629235229295405
0.17,-1.23861760653657e-05,0.668646808733894,-0.668634422557831
0.18,-1.34097412929017e-05,0.708047025561548,-0.708033615820257
0.19,-1.44333065204376e-05,0.747447242389201,-0.747432809082683
0.2,-1.54568717479735e-05,0.786847459216855,-0.786832002345109
0.21,-1.64804369755094e-05,0.826247676044508,-0.826231195607535
0.22,-1.75040022030454e-05,0.865647892872162,-0.865630388869961
0.23,-1.85275674305813e-05,0.905048109699815,-0.905029582132387
0.24,-1.95511326581172e-05,0.944448326527469,-0.944428775394813
0.25,-2.05746978856532e-05,0.983848543355122,-0.983827968657239
0.26,-2.15982631131891e-05,1.02324876018278,-1.02322716191967
0.27,-2.2621828340725e-05,1.06264897701043,-1.06262635518209
0.28,-2.36453935682609e-05,1.10204919383808,-1.10202554844452
0.29,-2.46689587957969e-05,1.14144941066574,-1.14142474170694
0.3,-2.56925240233328e-05,1.18084962749339,-1.18082393496937
0.31,-2.67160892508687e-05,1.22024984432104,-1.2202231282318
0.32,-2.77396544784047e-05,1.2596500611487,-1.25962232149422
0.33,-2.87632197059406e-05,1.29905027797635,-1.29902151475665
0.34,-2.97867849334765e-05,1.338450494804,-1.33842070801907
0.35,-3.08103501610125e-05,1.37785071163166,-1.3778199012815
0.36,-3.18339153885484e-05,1.41725092845931,-1.41721909454393
0.37,-3.28574806160843e-05,1.45665114528696,-1.45661828780635
0.38,-3.38810458436203e-05,1.49605136211462,-1.49601748106878
0.39,-3.49046110711562e-05,1.53545157894227,-1.5354166743312
0.4,-3.59281762986921e-05,1.57485179576993,-1.57481586759363
0.41,-3.6951741526228e-05,1.61425201259758,-1.61421506085606
0.42,-3.7975306753764e-05,1.65365222942523,-1.65361425411848
0.43,-3.89988719812999e-05,1.69305244625289,-1.69301344738091
0.440000000000001,-4.00224372088358e-05,1.73245266308054,-1.73241264064334
0.450000000000001,-4.10460024363718e-05,1.77185287990819,-1.77181183390576
0.460000000000001,-4.20695676639077e-05,1.81125309673585,-1.81121102716819
0.470000000000001,-4.30931328914436e-05,1.8506533135635,-1.85061022043061
0.480000000000001,-4.41166981189796e-05,1.89005353039115,-1.89000941369304
0.490000000000001,-4.51402633465155e-05,1.92945374721881,-1.92940860695547
0.500000000000001,-4.61638285740514e-05,1.96885396404646,-1.96880780021789
0.510000000000001,-4.71873938015874e-05,2.00825418087411,-2.00820699348032
0.520000000000001,-4.82109590291233e-05,2.04765439770177,-2.04760618674274
0.530000000000001,-4.92345242566592e-05,2.08705461452942,-2.08700538000517
0.540000000000001,-5.02580894841951e-05,2.12645483135707,-2.1264045732676
0.550000000000001,-5.12816547117311e-05,2.16585504818473,-2.16580376653002
0.560000000000001,-5.2305219939267e-05,2.20525526501238,-2.20520295979245
0.570000000000001,-5.33287851668029e-05,2.24465548184004,-2.24460215305487
0.580000000000001,-5.43523503943389e-05,2.28405569866769,-2.2840013463173
0.590000000000001,-5.53759156218748e-05,2.32345591549534,-2.32340053957973
0.600000000000001,-5.63994808494107e-05,2.362856132323,-2.36279973284215
0.610000000000001,-5.74230460769467e-05,2.40225634915065,-2.40219892610458
0.620000000000001,-5.84466113044826e-05,2.4416565659783,-2.441598119367
0.630000000000001,-5.94701765320185e-05,2.48105678280596,-2.48099731262943
0.640000000000001,-6.04937417595545e-05,2.52045699963361,-2.52039650589186
0.650000000000001,-6.15173069870904e-05,2.55985721646126,-2.55979569915428
0.660000000000001,-6.25408722146263e-05,2.59925743328892,-2.59919489241671
0.670000000000001,-6.35644374421622e-05,2.63865765011657,-2.63859408567914
0.680000000000001,-6.45880026696982e-05,2.67805786694422,-2.67799327894156
0.690000000000001,-6.56115678972341e-05,2.71745808377188,-2.71739247220399
0.700000000000001,0.0159769510259797,2.80764606953145,-2.82362302055743
0.710000000000001,0.062128205717808,2.88743833012362,-2.94956653584143
0.720000000000001,0.108279460409636,2.96723059071578,-3.07551005112542
0.730000000000001,0.154430715101465,3.04702285130795,-3.20145356640942
0.740000000000001,0.200581969793293,3.12681511190012,-3.32739708169341
0.750000000000001,0.246733224485121,3.20660737249228,-3.45334059697741
0.760000000000001,0.298505046054069,3.28947054146666,-3.58797558752073
0.770000000000001,0.355633970427769,3.37526066999284,-3.73089464042061
0.780000000000001,0.412762894801469,3.46105079851901,-3.87381369332048
0.790000000000001,0.469891819175169,3.54684092704518,-4.01673274622036
0.800000000000001,0.527020743548869,3.63263105557136,-4.15965179912023
0.810000000000001,0.585237623189508,3.71812539087178,-4.30336301406129
0.820000000000002,0.644366465333314,3.80337178185061,-4.44773824718393
0.830000000000002,0.703495307477121,3.88861817282945,-4.59211348030657
0.840000000000002,0.762624149620927,3.97386456380828,-4.73648871342921
0.850000000000002,0.821752991764734,4.05911095478712,-4.88086394655185
0.860000000000002,0.87513457716431,4.14207473594875,-5.01720931311306
0.870000000000002,0.925607912163194,4.22388346154024,-5.14949137370344
0.880000000000002,0.976081247162079,4.30569218713174,-5.28177343429381
0.890000000000002,1.02655458216096,4.38750091272323,-5.41405549488419
0.900000000000002,1.07702791715985,4.46930963831472,-5.54633755547456
0.910000000000002,1.1214023503871,4.54705167871191,-5.66845402909901
0.920000000000002,1.15631726249916,4.61848620737918,-5.77480346987834
0.930000000000002,1.19123217461123,4.68992073604644,-5.88115291065767
0.940000000000002,1.22614708672329,4.76135526471371,-5.987502351437
0.950000000000002,1.26106199883536,4.83278979338097,-6.09385179221633
0.960000000000002,1.29597691094742,4.90422432204824,-6.20020123299566
0.970000000000002,1.31223312141683,4.96666213074022,-6.27889525215705
0.980000000000002,1.31562995642982,5.02289949728708,-6.33852945371691
0.990000000000002,1.31902679144281,5.07913686383395,-6.39816365527676
1,1.32242362645581,5.13537423038081,-6.45779785683661
1.01,1.3258204614688,5.19161159692767,-6.51743205839647
1.02,1.32921729648179,5.24784896347453,-6.57706625995632
1.03,1.33261413149478,5.30408633002139,-6.63670046151617
1.04,1.29731553240456,5.35131488725342,-6.64863041965799
1.05,1.24312987619256,5.39414628755799,-6.63727616375055
1.06,1.18894421998056,5.43697768786255,-6.62592190784311
1.07,1.13475856376856,5.47980908816711,-6.61456765193567
1.08,1.08057290755656,5.52264048847167,-6.60321339602823
1.09,1.02638725134456,5.56547188877623,-6.59185914012079
1.1,0.972201595132565,5.60830328908079,-6.58050488421335
1.11,0.918015938920565,5.65113468938535,-6.56915062830591
1.12,0.861731799147572,5.69418032843542,-6.55591212758298
1.13,0.755084053911073,5.74236769737752,-6.49745175128859
1.14,0.648436308674573,5.79055506631962,-6.43899137499419
1.15,0.541788563438074,5.83874243526173,-6.3805309986998
1.16,0.435140818201575,5.88692980420383,-6.3220706224054
1.17,0.328493072965075,5.93511717314594,-6.26361024611101
1.18,0.221845327728576,5.98330454208804,-6.20514986981661
1.19,0.115197582492076,6.03149191103014,-6.14668949352222
1.2,0.00854983725557662,6.07967927997225,-6.08822911722782
1.21,-0.0980979079809229,6.12786664891435,-6.02976874093343
1.22,-0.204745653217422,6.17605401785646,-5.97130836463903
1.23,-0.311393398453922,6.22424138679856,-5.91284798834464
1.24,-0.418041143690421,6.27242875574067,-5.85438761205024
1.25,-0.525946399751938,6.32424708392455,-5.79830068417261
1.26,-0.62268317095292,6.43774518024051,-5.81506200928758
1.27,-0.718624044010908,6.55125488728151,-5.8326308432706
1.28,-0.814564917068896,6.66476459432252,-5.85019967725362
1.29,-0.910505790126884,6.77827430136353,-5.86776851123664
1.3,-1.00644666318487,6.89178400840454,-5.88533734521966
1.31,-1.10238753624286,7.00529371544554,-5.90290617920268
1.32,-1.19832840930085,7.11880342248655,-5.9204750131857
1.33,-1.29426928235884,7.23231312952756,-5.93804384716872
1.34,-1.39021015541682,7.34582283656857,-5.95561268115174
1.35,-1.48615102847481,7.45933254360957,-5.97318151513476
1.36,-1.56927585638396,7.588804854296,-6.01952899791204
1.37,-1.6344089286034,7.7406862047154,-6.106277276112
1.38,-1.69954200082285,7.8925675551348,-6.19302555431195
1.39,-1.7646750730423,8.0444489055542,-6.2797738325119
1.4,-1.82980814526174,8.1963302559736,-6.36652211071185
1.41,-1.89494121748119,8.348211606393,-6.45327038891181
1.42,-1.96007428970064,8.50009295681239,-6.54001866711176
1.43,-2.02520736192008,8.65197430723179,-6.62676694531171
1.44,-2.09034043413953,8.80385565765119,-6.71351522351166
1.45,-2.15129182894327,8.942927880015,-6.79163605107173
1.46,-2.21027537555139,9.07597227741148,-6.86569690186009
1.47,-2.26925892215951,9.20901667480796,-6.93975775264845
1.48,-2.32824246876763,9.34206107220444,-7.01381860343682
1.49,-2.38722601537575,9.47510546960092,-7.08787945422518
1.5,-2.44620956198387,9.6081498669974,-7.16194030501354
1.51,-2.50519310859199,9.74119426439388,-7.2360011558019
1.52,-2.56448237284996,9.87185922767387,-7.30737685482392
1.53,-2.62728739008118,9.97516069861427,-7.34787330853309
1.54,-2.69009240731241,10.0784621695547,-7.38836976224227
1.55,-2.75289742454364,10.1817636404951,-7.42886621595145
1.56,-2.81570244177486,10.2850651114355,-7.46936266966063
1.57,-2.87850745900609,10.3883665823759,-7.5098591233698
1.58,-2.94131247623731,10.4916680533163,-7.55035557707898
1.59,-3.00411749346854,10.5949695242567,-7.59085203078816
1.6,-3.06692251069977,10.6982709951971,-7.63134848449733
1.61,-3.1439750539148,10.7670699228295,-7.62309486891463
1.62,-3.22342437720188,10.8300646842978,-7.60664030709593
1.63,-3.30287370048895,10.8930594457662,-7.59018574527724
1.64,-3.38232302377602,10.9560542072346,-7.57373118345854
1.65,-3.4617723470631,11.0190489687029,-7.55727662163985
1.66,-3.54122167035017,11.0820437301713,-7.54082205982115
1.67,-3.62067099363724,11.1450384916397,-7.52436749800246
1.68,-3.70012031692432,11.2080332531081,-7.50791293618376
1.69,-3.77956964021139,11.2710280145764,-7.49145837436506
1.7,-3.88215856428244,11.3035506905816,-7.4213921262992
1.71,-3.98941990774255,11.3299203493298,-7.3405004415873
1.72,-4.09668125120266,11.356290008078,-7.25960875687541
1.73,-4.20394259466276,11.3826596668262,-7.17871707216351
1.74,-4.31120393812287,11.4090293255745,-7.09782538745161
1.75,-4.41846528158298,11.4353989843227,-7.01693370273971
1.76,-4.52572662504309,11.4617686430709,-6.93604201802781
1.77,-4.6329879685032,11.4881383018191,-6.85515033331592
1.78,-4.7402493119633,11.5145079605673,-6.77425864860402
1.79,-4.87301549803543,11.5189844979429,-6.64596899990755
1.8,-5.01493016026184,11.5156080678697,-6.50067790760794
1.81,-5.15684482248825,11.5122316377966,-6.35538681530834
1.82,-5.29875948471467,11.5088552077234,-6.21009572300874
1.83,-5.44067414694108,11.5054787776502,-6.06480463070914
1.84,-5.5825888091675,11.502102347577,-5.91951353840954
1.85,-5.72450347139391,11.4987259175038,-5.77422244610994
1.86,-5.86641813362032,11.4953494874306,-5.62893135381034
1.87,-6.00833279584674,11.4919730573574,-5.48364026151074
1.88,-6.17138207756289,11.5078081554517,-5.33642607788883
1.89,-6.33798671582871,11.5268750994059,-5.18888838357718
1.9,-6.50459135409453,11.54594204336,-5.04135068926553
1.91,-6.67119599236035,11.5650089873142,-4.89381299495388
1.92,-6.83780063062617,11.5840759312684,-4.74627530064224
1.93,-7.00440526889199,11.6031428752226,-4.59873760633059
1.94,-7.17100990715781,11.6222098191767,-4.45119991201894
1.95,-7.33761454542363,11.6412767631309,-4.30366221770729
1.96,-7.51948958310488,11.7070141103453,-4.18752452724046
1.97,-7.70344694797915,11.7791156034589,-4.07566865547972
1.98,-7.88740431285341,11.8512170965724,-3.96381278371898
1.99,-8.07136167772767,11.9233185896859,-3.85195691195824
2,-8.25531904260194,11.9954200827994,-3.7401010401975
2.01,-8.4392764074762,12.067521575913,-3.62824516843676
2.02,-8.62323377235047,12.1396230690265,-3.51638929667602
2.03,-8.80694518494248,12.2274159047561,-3.42047071981358
2.04,-8.99021934903272,12.3431044606919,-3.35288511165918
2.05,-9.17349351312296,12.4587930166277,-3.28529950350477
2.06,-9.3567676772132,12.5744815725635,-3.21771389535037
2.07,-9.54004184130344,12.6901701284994,-3.15012828719597
2.08,-9.72331600539368,12.8058586844352,-3.08254267904156
2.09,-9.85828974093412,12.9890083690675,-3.13071862813344
2.1,-9.96221777515153,13.2168003222053,-3.25458254705377
2.11,-10.0661458093689,13.444592275343,-3.37844646597409
2.12,-10.1700738435863,13.6723842284807,-3.50231038489441
2.13,-10.2740018778037,13.9001761816185,-3.62617430381474
2.14,-10.3779299120211,14.1279681347562,-3.75003822273506
2.15,-10.4818579462386,14.355760087894,-3.87390214165538
2.16,-10.585785980456,14.5835520410317,-3.9977660605757
2.17,-10.6897140146734,14.8113439941694,-4.12162997949603
2.18,-10.7889807063725,15.0176748155429,-4.22869410917031
2.19,-10.8858030355316,15.212751628796,-4.32694859326437
2.20000000000001,-10.9826253646907,15.4078284420492,-4.42520307735843
2.21,-11.0794476938498,15.6029052553023,-4.52345756145248
2.22000000000001,-11.1762700230089,15.7979820685555,-4.62171204554654
2.23,-11.273092352168,15.9930588818086,-4.7199665296406
2.24000000000001,-11.3699146813271,16.1881356950618,-4.81822101373466
2.25,-11.4667370104862,16.3832125083149,-4.91647549782871
2.26000000000001,-11.5594574468939,16.5323417260433,-4.97288427914935
2.27,-11.6514426383746,16.6732350540079,-5.02179241563328
2.28000000000001,-11.7434278298552,16.8141283819725,-5.0707005521172
2.29,-11.8354130213359,16.955021709937,-5.11960868860113
2.30000000000001,-11.9273982128165,17.0959150379016,-5.16851682508505
2.31,-12.0193834042972,17.2368083658662,-5.21742496156898
2.32000000000001,-12.1113685957778,17.3777016938308,-5.2663330980529
2.33000000000001,-12.2033537872585,17.5185950217953,-5.31524123453683
2.34000000000001,-12.2953389787391,17.6594883497599,-5.36414937102075
2.35000000000001,-12.3897721497005,17.7574799630657,-5.36770781336522
2.36000000000001,-12.4856803852207,17.8296205431798,-5.34394015795905
2.37000000000001,-12.581588620741,17.9017611232939,-5.32017250255288
2.38000000000001,-12.6774968562612,17.973901703408,-5.29640484714671
2.39000000000001,-12.7734050917815,18.046042283522,-5.27263719174054
2.40000000000001,-12.8693133273017,18.1181828636361,-5.24886953633438
2.41000000000001,-12.965221562822,18.1903234437502,-5.22510188092821
2.42000000000001,-13.0611297983422,18.2624640238643,-5.20133422552204
2.43000000000001,-13.1570380338625,18.3346046039784,-5.17756657011587
2.44000000000001,-13.2529462693827,18.4067451840924,-5.1537989147097
2.45000000000001,-13.3572065005329,18.467341600964,-5.11013510043113
2.46000000000001,-13.4891147172164,18.4897228567571,-5.00060813954065
2.47000000000001,-13.6210229338999,18.5121041125501,-4.89108117865016
2.48000000000001,-13.7529311505834,18.5344853683431,-4.78155421775968
2.49000000000001,-13.884839367267,18.5568666241362,-4.6720272568692
2.50000000000001,-14.0167475839505,18.5792478799292,-4.56250029597872
2.51000000000001,-14.148655800634,18.6016291357223,-4.45297333508824
2.52000000000001,-14.2805640173176,18.6240103915153,-4.34344637419776
2.53000000000001,-14.4124722340011,18.6463916473084,-4.23391941330728
2.54000000000001,-14.5443804506846,18.6687729031014,-4.1243924524168
2.55000000000001,-14.6762886673682,18.6911541588945,-4.01486549152632
2.56000000000001,-14.8081968840517,18.7135354146875,-3.90533853063584
2.57000000000001,-14.9678150969818,18.7508550296351,-3.78303993265333
2.58000000000001,-15.1414552357234,18.7957338142754,-3.65427857855199
2.59000000000001,-15.315095374465,18.8406125989156,-3.52551722445064
2.60000000000001,-15.4887355132065,18.8854913835558,-3.3967558703493
2.61000000000001,-15.6623756519481,18.9303701681961,-3.26799451624795
2.62000000000001,-15.8360157906897,18.9752489528363,-3.13923316214661
2.63000000000001,-16.0096559294313,19.0201277374765,-3.01047180804526
2.64000000000001,-16.1832960681729,19.0650065221168,-2.88171045394392
2.65000000000001,-16.3622923951354,19.1194456273364,-2.75715323220095
2.66000000000001,-16.5433716841839,19.1776026350035,-2.63423095081956
2.67000000000001,-16.7244509732324,19.2357596426706,-2.51130866943818
2.68000000000001,-16.9055302622809,19.2939166503377,-2.3883863880568
2.69000000000001,-17.0866095513294,19.3520736580048,-2.26546410667541
2.70000000000001,-17.2676888403779,19.4102306656719,-2.14254182529403
2.71000000000001,-17.4486386905427,19.4694083933751,-2.02076970283236
2.72000000000001,-17.6284733749406,19.5373800167733,-1.90890664183276
2.73000000000001,-17.8083080593385,19.6053516401716,-1.79704358083316
2.74000000000001,-17.9881427437364,19.6733232635699,-1.68518051983356
2.75000000000001,-18.1679774281342,19.7412948869682,-1.57331745883396
2.76000000000001,-18.3478121125321,19.8092665103664,-1.46145439783435
2.77000000000001,-18.52764679693,19.8772381337647,-1.34959133683475
2.78000000000001,-18.7074814813279,19.945209757163,-1.23772827583515
2.79000000000001,-18.8873161657258,20.0131813805612,-1.12586521483555
2.80000000000001,-19.0671508501237,20.0811530039595,-1.01400215383595
2.81000000000001,-19.2342791218269,20.1634933646174,-0.929214242790585
2.82000000000001,-19.3989871244455,20.2485706276105,-0.849583503165049
2.83000000000001,-19.5636951270642,20.3336478906036,-0.769952763539514
2.84000000000001,-19.7284031296828,20.4187251535967,-0.690322023913979
2.85000000000001,-19.8931111323014,20.5038024165898,-0.610691284288443
2.86000000000001,-20.05781913492,20.5888796795828,-0.531060544662908
2.87000000000001,-20.2225271375386,20.6739569425759,-0.451429805037372
2.88000000000001,-20.3872351401572,20.759034205569,-0.371799065411837
2.89000000000001,-20.5519431427758,20.8441114685621,-0.292168325786302
2.90000000000001,-20.7166511453944,20.9291887315552,-0.212537586160766
2.91000000000001,-20.881359148013,21.0142659945482,-0.132906846535231
2.92000000000001,-21.0460671506316,21.0993432575413,-0.0532761069096953
2.93000000000001,-21.193066629354,21.1579271265696,0.0351395027843535
2.94000000000001,-21.3037852298499,21.1622318469873,0.141553382862617
2.95000000000001,-21.4145038303459,21.166536567405,0.24796726294088
2.96000000000001,-21.5252224308418,21.1708412878227,0.354381143019144
2.97000000000001,-21.6359410313378,21.1751460082404,0.460795023097407
2.98000000000001,-21.7466596318338,21.1794507286581,0.567208903175671
2.99000000000001,-21.8573782323297,21.1837554490758,0.673622783253934
3.00000000000001,-21.9680968328257,21.1880601694935,0.780036663332198
3.01000000000001,-22.0788154333216,21.1923648899112,0.886450543410461
3.02000000000001,-22.1895340338176,21.1966696103289,0.992864423488725
3.03000000000001,-22.3002526343136,21.2009743307466,1.09927830356699
3.04000000000001,-22.4109712348095,21.2052790511643,1.20569218364525
3.05000000000001,-22.5216898353055,21.209583771582,1.31210606372352
3.06000000000001,-22.6324084358015,21.2138884919997,1.41851994380178
3.07000000000001,-22.7017079185089,21.129433321562,1.57227459694695
3.08000000000001,-22.7611652346132,21.0238866919112,1.73727854270203
3.09000000000001,-22.8206225507174,20.9183400622603,1.90228248845711
