"Time [ms]","Current(PhaseA) [A]","Current(PhaseB) [A]","Current(PhaseC) [A]"
0,0,0,0
0.01,4.42722047452428e-06,0.0382291464195556,-0.0382335736400301
0.02,3.4035999251259e-06,0.0776127592730703,-0.0776161628729953
0.03,2.37997937572752e-06,0.116996372126585,-0.116998752105961
0.04,1.35635882632914e-06,0.1563799849801,-0.156381341338926
0.05,3.32738276930763e-07,0.195763597833614,-0.195763930571891
0.06,-6.90882272467616e-07,0.235147210687129,-0.235146519804856
0.07,-1.714502821866e-06,0.274530823540644,-0.274529109037821
0.08,-2.73812337126438e-06,0.313914436394158,-0.313911698270787
0.09,-3.76174392066276e-06,0.353298049247673,-0.353294287503752
0.1,-4.78536447006113e-06,0.392681662101188,-0.392676876736717
0.11,-5.80898501945951e-06,0.432065274954702,-0.432059465969682
0.12,-6.83260556885789e-06,0.471448887808217,-0.471442055202648
0.13,-7.85622611825627e-06,0.510832500661732,-0.510824644435613
0.14,-8.87984666765465e-06,0.550216113515246,-0.550207233668578
0.15,-9.90346721705303e-06,0.589599726368761,-0.589589822901543
0.16,-1.09270877664514e-05,0.628983339222276,-0.628972412134508
0.17,-1.19507083158498e-05,0.66836695207579,-0.668355001367474
0.18,-1.29743288652482e-05,0.707750564929305,-0.707737590600439
0.19,-1.39979494146466e-05,0.74713417778282,-0.747120179833404
0.2,-1.50215699640449e-05,0.786517790636335,-0.786502769066369
0.21,-1.60451905134433e-05,0.825901403489849,-0.825885358299335
0.22,-1.70688110628417e-05,0.865285016343364,-0.8652679475323
0.23,-1.80924316122401e-05,0.904668629196879,-0.904650536765265
0.24,-1.91160521616384e-05,0.944052242050393,-0.94403312599823
0.25,-2.01396727110368e-05,0.983435854903908,-0.983415715231196
0.26,-2.11632932604352e-05,1.02281946775742,-1.02279830446416
0.27,-2.21869138098336e-05,1.06220308061094,-1.06218089369713
0.28,-2.3210534359232e-05,1.10158669346445,-1.10156348293009
0.29,-2.42341549086304e-05,1.14097030631797,-1.14094607216306
0.3,-2.52577754580287e-05,1.18035391917148,-1.18032866139602
0.31,-2.62813960074271e-05,1.219737532025,-1.21971125062899
0.32,-2.73050165568255e-05,1.25912114487851,-1.25909383986195
0.33,-2.83286371062239e-05,1.29850475773203,-1.29847642909492
0.34,-2.93522576556223e-05,1.33788837058554,-1.33785901832788
0.35,-3.03758782050207e-05,1.37727198343906,-1.37724160756085
0.36,-3.1399498754419e-05,1.41665559629257,-1.41662419679381
0.37,-3.24231193038174e-05,1.45603920914609,-1.45600678602678
0.38,-3.34467398532158e-05,1.4954228219996,-1.49538937525974
0.39,-3.44703604026142e-05,1.53480643485312,-1.53477196449271
0.4,-3.54939809520126e-05,1.57419004770663,-1.57415455372568
0.41,-3.65176015014109e-05,1.61357366056014,-1.61353714295864
0.42,-3.75412220508093e-05,1.65295727341366,-1.65291973219161
0.43,-3.85648426002077e-05,1.69234088626717,-1.69230232142457
0.440000000000001,-3.95884631496061e-05,1.73172449912069,-1.73168491065754
0.450000000000001,-4.06120836990045e-05,1.7711081119742,-1.7710674998905
0.460000000000001,-4.16357042484029e-05,1.81049172482772,-1.81045008912347
0.470000000000001,-4.26593247978012e-05,1.84987533768123,-1.84983267835643
0.480000000000001,-4.36829453471996e-05,1.88925895053475,-1.8892152675894
0.490000000000001,-4.4706565896598e-05,1.92864256338826,-1.92859785682236
0.500000000000001,-4.57301864459964e-05,1.96802617624178,-1.96798044605533
0.510000000000001,-4.67538069953948e-05,2.00740978909529,-2.00736303528829
0.520000000000001,-4.77774275447931e-05,2.04679340194881,-2.04674562452126
0.530000000000001,-4.88010480941915e-05,2.08617701480232,-2.08612821375422
0.540000000000001,-4.98246686435899e-05,2.12556062765584,-2.12551080298719
0.550000000000001,-5.08482891929883e-05,2.16494424050935,-2.16489339222016
0.560000000000001,-5.18719097423867e-05,2.20432785336287,-2.20427598145312
0.570000000000001,-5.28955302917851e-05,2.24371146621638,-2.24365857068609
0.580000000000001,-5.39191508411834e-05,2.2830950790699,-2.28304115991905
0.590000000000001,-5.49427713905818e-05,2.32247869192341,-2.32242374915202
0.600000000000001,-5.59663919399802e-05,2.36186230477693,-2.36180633838498
0.610000000000001,-5.69900124893786e-05,2.40124591763044,-2.40118892761795
0.620000000000001,-5.8013633038777e-05,2.44062953048395,-2.44057151685091
0.630000000000001,-5.90372535881753e-05,2.48001314333747,-2.47995410608388
0.640000000000001,-6.00608741375737e-05,2.51939675619098,-2.51933669531684
0.650000000000001,-6.10844946869721e-05,2.5587803690445,-2.55871928454981
0.660000000000001,-6.21081152363705e-05,2.59816398189801,-2.59810187378277
0.670000000000001,-6.31317357857689e-05,2.63754759475153,-2.63748446301574
0.680000000000001,-6.41553563351673e-05,2.67693120760504,-2.6768670522487
0.690000000000001,-6.51789768845656e-05,2.71631482045856,-2.71624964148167
0.700000000000001,0.0197915791089691,2.80413890443918,-2.82393048354815
0.710000000000001,0.0657454719251606,2.88393660009583,-2.94968207202099
0.720000000000001,0.111699364741352,2.96373429575247,-3.07543366049383
0.730000000000001,0.157653257557544,3.04353199140912,-3.20118524896667
0.740000000000001,0.203607150373735,3.12332968706577,-3.32693683743951
0.750000000000001,0.249561043189927,3.20312738272242,-3.45268842591235
0.760000000000001,0.301354772392182,3.28622758402214,-3.58758235641433
0.770000000000001,0.358043658565107,3.37209606211091,-3.73013972067602
0.780000000000001,0.414732544738032,3.45796454019967,-3.87269708493771
0.790000000000001,0.471421430910957,3.54383301828844,-4.0152544491994
0.800000000000001,0.528110317083882,3.62970149637721,-4.15781181346109
0.810000000000001,0.586020506470964,3.71527743747506,-4.30129794394603
0.820000000000002,0.644859574358955,3.80063088565026,-4.44549046000922
0.830000000000002,0.703698642246946,3.88598433382546,-4.58968297607241
0.840000000000002,0.762537710134936,3.97133778200065,-4.73387549213559
0.850000000000002,0.821376778022927,4.05669123017585,-4.87806800819878
0.860000000000002,0.874407684136195,4.13969311576071,-5.0141007998969
0.870000000000002,0.924705337649595,4.22158838365599,-5.14629372130559
0.880000000000002,0.975002991162995,4.30348365155127,-5.27848664271427
0.890000000000002,1.0253006446764,4.38537891944655,-5.41067956412295
0.900000000000002,1.0755982981898,4.46727418734184,-5.54287248553163
0.910000000000002,1.11968028122547,4.54490368298646,-5.66458396421193
0.920000000000002,1.15474344827386,4.61634362673796,-5.77108707501182
0.930000000000002,1.18980661532225,4.68778357048946,-5.87759018581171
0.940000000000002,1.22486978237064,4.75922351424097,-5.98409329661161
0.950000000000002,1.25993294941903,4.83066345799247,-6.0905964074115
0.960000000000002,1.29499611646742,4.90210340174397,-6.19709951821139
0.970000000000002,1.31100686786877,4.96427200172653,-6.2752788695953
0.980000000000002,1.31473382497137,5.02046302480544,-6.33519684977681
0.990000000000002,1.31846078207398,5.07665404788434,-6.39511482995832
1,1.32218773917659,5.13284507096325,-6.45503281013984
1.01,1.32591469627919,5.18903609404215,-6.51495079032135
1.02,1.3296416533818,5.24522711712106,-6.57486877050286
1.03,1.33336861048441,5.30141814019996,-6.63478675068437
1.04,1.29760686142259,5.34834248236618,-6.64594934378877
1.05,1.24393744328623,5.3910644924906,-6.63500193577683
1.06,1.19026802514987,5.43378650261502,-6.62405452776489
1.07,1.13659860701351,5.47650851273944,-6.61310711975296
1.08,1.08292918887715,5.51923052286386,-6.60215971174102
1.09,1.02925977074079,5.56195253298828,-6.59121230372908
1.1,0.975590352604433,5.60467454311271,-6.58026489571714
1.11,0.921920934468073,5.64739655323713,-6.5693174877052
1.12,0.8652934308807,5.69042167412156,-6.55571510500226
1.13,0.758801058262193,5.73855637638909,-6.49735743465128
1.14,0.652308685643687,5.78669107865661,-6.4389997643003
1.15,0.54581631302518,5.83482578092414,-6.38064209394932
1.16,0.439323940406673,5.88296048319166,-6.32228442359833
1.17,0.332831567788167,5.93109518545919,-6.26392675324735
1.18,0.22633919516966,5.97922988772671,-6.20556908289637
1.19,0.119846822551153,6.02736458999424,-6.14721141254539
1.2,0.0133544499326465,6.07549929226176,-6.08885374219441
1.21,-0.0931379226858602,6.12363399452929,-6.03049607184343
1.22,-0.199630295304367,6.17176869679681,-5.97213840149244
1.23,-0.306122667922874,6.21990339906434,-5.91378073114146
1.24,-0.41261504054138,6.26803810133186,-5.85542306079048
1.25,-0.5217666926863,6.32222341862296,-5.80045672593665
1.26,-0.618326839537785,6.43535009479698,-5.81702325525919
1.27,-0.714886986389269,6.548476770971,-5.83358978458173
1.28,-0.811447133240752,6.66160344714502,-5.85015631390426
1.29,-0.908007280092236,6.77473012331904,-5.8667228432268
1.3,-1.00456742694372,6.88785679949306,-5.88328937254933
1.31,-1.1011275737952,7.00098347566707,-5.89985590187187
1.32,-1.19768772064669,7.11411015184109,-5.9164224311944
1.33,-1.29424786749817,7.22723682801511,-5.93298896051694
1.34,-1.39080801434966,7.34036350418913,-5.94955548983947
1.35,-1.48736816120114,7.45349018036315,-5.96612201916201
1.36,-1.56691091505165,7.58769667931782,-6.02078576426617
1.37,-1.63218908947488,7.73957302972096,-6.10738394024608
1.38,-1.69746726389811,7.8914493801241,-6.19398211622599
1.39,-1.76274543832135,8.04332573052725,-6.2805802922059
1.4,-1.82802361274458,8.19520208093039,-6.36717846818581
1.41,-1.89330178716782,8.34707843133353,-6.45377664416572
1.42,-1.95857996159105,8.49895478173667,-6.54037482014563
1.43,-2.02385813601428,8.65083113213981,-6.62697299612554
1.44,-2.08913631043752,8.80270748254295,-6.71357117210544
1.45,-2.14928463700078,8.94005988676261,-6.79077524976184
1.46,-2.20808573079274,9.07359792127752,-6.86551219048479
1.47,-2.26688682458471,9.20713595579244,-6.94024913120774
1.48,-2.32568791837667,9.34067399030735,-7.01498607193069
1.49,-2.38448901216863,9.47421202482227,-7.08972301265364
1.5,-2.44329010596059,9.60775005933718,-7.16445995337659
1.51,-2.50209119975255,9.74128809385209,-7.23919689409954
1.52,-2.56164909800852,9.86913072033975,-7.30748162233123
1.53,-2.62439188171716,9.97300517137939,-7.34861328966223
1.54,-2.6871346654258,10.076879622419,-7.38974495699324
1.55,-2.74987744913445,10.1807540734587,-7.43087662432424
1.56,-2.81262023284309,10.2846285244983,-7.47200829165525
1.57,-2.87536301655173,10.3885029755379,-7.51313995898625
1.58,-2.93810580026037,10.4923774265776,-7.55427162631725
1.59,-3.00084858396901,10.5962518776172,-7.59540329364826
1.6,-3.06359136767766,10.7001263286569,-7.63653496097926
1.61,-3.14262338970576,10.7651428739124,-7.62251948420666
1.62,-3.22219389895104,10.828874860299,-7.606680961348
1.63,-3.30176440819631,10.8926068466856,-7.59084243848934
1.64,-3.38133491744159,10.9563388330722,-7.57500391563068
1.65,-3.46090542668686,11.0200708194589,-7.55916539277203
1.66,-3.54047593593213,11.0838028058455,-7.54332686991337
1.67,-3.62004644517741,11.1475347922321,-7.52748834705471
1.68,-3.69961695442268,11.2112667786187,-7.51164982419606
1.69,-3.77918746366796,11.2749987650054,-7.4958113013374
1.7,-3.88501371857418,11.3032741460731,-7.41826042749894
1.71,-3.99216379258936,11.3297617991416,-7.33759800655228
1.72,-4.09931386660453,11.3562494522101,-7.25693558560561
1.73,-4.2064639406197,11.3827371052786,-7.17627316465895
1.74,-4.31361401463487,11.4092247583471,-7.09561074371229
1.75,-4.42076408865004,11.4357124114156,-7.01494832276562
1.76,-4.52791416266521,11.4622000644841,-6.93428590181896
1.77,-4.63506423668039,11.4886877175526,-6.8536234808723
1.78,-4.74221431069556,11.5151753706211,-6.77296105992564
1.79,-4.87861786626255,11.5162762739072,-6.63765840764468
1.8,-5.01994256825881,11.5131065090055,-6.49316394074677
1.81,-5.16126727025507,11.5099367441039,-6.34866947384886
1.82,-5.30259197225132,11.5067669792023,-6.20417500695095
1.83,-5.44391667424758,11.5035972143006,-6.05968054005305
1.84,-5.58524137624384,11.500427449399,-5.91518607315514
1.85,-5.7265660782401,11.4972576844973,-5.77069160625723
1.86,-5.86789078023635,11.4940879195957,-5.62619713935932
1.87,-6.00921548223261,11.4909181546941,-5.48170267246141
1.88,-6.17410520663435,11.5085064741424,-5.33440126750798
1.89,-6.33977394004122,11.5267810112551,-5.18700707121387
1.9,-6.50544267344808,11.5450555483679,-5.03961287491977
1.91,-6.67111140685495,11.5633300854806,-4.89221867862566
1.92,-6.83678014026182,11.5816046225934,-4.74482448233155
1.93,-7.00244887366868,11.5998791597062,-4.59743028603745
1.94,-7.16811760707555,11.6181536968189,-4.45003608974334
1.95,-7.33378634048242,11.6364282339317,-4.30264189344923
1.96,-7.51621630174019,11.7046765473377,-4.18846024559748
1.97,-7.69964057312471,11.775889406795,-4.07624883367026
1.98,-7.88306484450923,11.8471022662523,-3.96403742174304
1.99,-8.06648911589375,11.9183151257096,-3.85182600981581
2,-8.24991338727827,11.9895279851669,-3.73961459788859
2.01,-8.43333765866278,12.0607408446242,-3.62740318596137
2.02,-8.6167619300473,12.1319537040815,-3.51519177403414
2.03,-8.80005630421895,12.2222148167459,-3.42215851252695
2.04,-8.98317988761072,12.3375208549235,-3.35434096731271
2.05,-9.16630347100248,12.452826893101,-3.28652342209847
2.06,-9.34942705439425,12.5681329312785,-3.21870587688423
2.07,-9.53255063778601,12.683438969456,-3.15088833166999
2.08,-9.71567422117778,12.7987450076335,-3.08307078645575
2.09,-9.8489419120654,12.9805512340451,-3.13160932197964
2.1,-9.95241725843582,13.2079472606606,-3.25553000222475
2.11,-10.0558926048062,13.4353432872761,-3.37945068246986
2.12,-10.1593679511767,13.6627393138916,-3.50337136271497
2.13,-10.2628432975471,13.8901353405072,-3.62729204296007
2.14,-10.3663186439175,14.1175313671227,-3.75121272320518
2.15,-10.4697939902879,14.3449273937382,-3.87513340345029
2.16,-10.5732693366584,14.5723234203537,-3.99905408369539
2.17,-10.6767446830288,14.7997194469693,-4.1229747639405
2.18,-10.7760389455657,15.0068529874944,-4.23081404192866
2.19,-10.8728138370748,15.2017770812726,-4.3289632441979
2.20000000000001,-10.9695887285838,15.3967011750509,-4.42711244646714
2.21,-11.0663636200929,15.5916252688292,-4.52526164873639
2.22000000000001,-11.1631385116019,15.7865493626075,-4.62341085100563
2.23,-11.259913403111,15.9814734563858,-4.72156005327487
2.24000000000001,-11.35668829462,16.1763975501641,-4.81970925554411
2.25,-11.4534631861291,16.3713216439424,-4.91785845781336
2.26000000000001,-11.5462633373343,16.5219166860671,-4.9756533487328
2.27,-11.638167223569,16.6625159616424,-5.02434873807339
2.28000000000001,-11.7300711098038,16.8031152372177,-5.07304412741398
2.29,-11.8219749960385,16.9437145127931,-5.12173951675457
2.30000000000001,-11.9138788822733,17.0843137883684,-5.17043490609517
2.31,-12.005782768508,17.2249130639438,-5.21913029543576
2.32000000000001,-12.0976866547428,17.3655123395191,-5.26782568477635
2.33000000000001,-12.1895905409775,17.5061116150945,-5.31652107411694
2.34000000000001,-12.2814944272123,17.6467108906698,-5.36521646345753
2.35000000000001,-12.3757492383141,17.7466173558941,-5.37086811758005
2.36000000000001,-12.4716242814188,17.8184787761468,-5.34685449472802
2.37000000000001,-12.5674993245235,17.8903401963995,-5.32284087187598
2.38000000000001,-12.6633743676283,17.9622016166522,-5.29882724902394
2.39000000000001,-12.759249410733,18.0340630369049,-5.27481362617191
2.40000000000001,-12.8551244538378,18.1059244571576,-5.25080000331987
2.41000000000001,-12.9509994969425,18.1777858774104,-5.22678638046784
2.42000000000001,-13.0468745400472,18.2496472976631,-5.2027727576158
2.43000000000001,-13.142749583152,18.3215087179158,-5.17875913476377
2.44000000000001,-13.2386246262567,18.3933701381685,-5.15474551191173
2.45000000000001,-13.3414359651187,18.4557095616242,-5.11427359650554
2.46000000000001,-13.4734375486255,18.4779772485597,-5.00453969993421
2.47000000000001,-13.6054391321323,18.5002449354951,-4.89480580336287
2.48000000000001,-13.737440715639,18.5225126224306,-4.78507190679153
2.49000000000001,-13.8694422991458,18.544780309366,-4.6753380102202
2.50000000000001,-14.0014438826526,18.5670479963015,-4.56560411364886
2.51000000000001,-14.1334454661594,18.5893156832369,-4.45587021707752
2.52000000000001,-14.2654470496662,18.6115833701724,-4.34613632050619
2.53000000000001,-14.397448633173,18.6338510571078,-4.23640242393485
2.54000000000001,-14.5294502166798,18.6561187440433,-4.12666852736351
2.55000000000001,-14.6614518001866,18.6783864309787,-4.01693463079217
2.56000000000001,-14.7934533836934,18.7006541179142,-3.90720073422084
2.57000000000001,-14.9507017550588,18.7366695337639,-3.78596777870507
2.58000000000001,-15.1236883837907,18.7812549624432,-3.65756657865254
2.59000000000001,-15.2966750125226,18.8258403911226,-3.52916537860001
2.60000000000001,-15.4696616412544,18.8704258198019,-3.40076417854747
2.61000000000001,-15.6426482699863,18.9150112484813,-3.27236297849494
2.62000000000001,-15.8156348987182,18.9595966771606,-3.1439617784424
2.63000000000001,-15.98862152745,19.00418210584,-3.01556057838987
2.64000000000001,-16.1616081561819,19.0487675345193,-2.88715937833733
2.65000000000001,-16.33986522883,19.1027810495653,-2.76291582073525
2.66000000000001,-16.5204243344529,19.1609125793461,-2.64048824489313
2.67000000000001,-16.7009834400758,19.2190441091269,-2.51806066905101
2.68000000000001,-16.8815425456988,19.2771756389077,-2.39563309320889
2.69000000000001,-17.0621016513217,19.3353071686885,-2.27320551736677
2.70000000000001,-17.2426607569446,19.3934386984693,-2.15077794152465
2.71000000000001,-17.4231684887124,19.4523041377777,-2.02913564906532
2.72000000000001,-17.6030140685697,19.5206288554425,-1.91761478687288
2.73000000000001,-17.7828596484269,19.5889535731074,-1.80609392468044
2.74000000000001,-17.9627052282842,19.6572782907722,-1.694573062488
2.75000000000001,-18.1425508081415,19.725603008437,-1.58305220029556
2.76000000000001,-18.3223963879987,19.7939277261018,-1.47153133810312
2.77000000000001,-18.502241967856,19.8622524437666,-1.36001047591068
2.78000000000001,-18.6820875477132,19.9305771614315,-1.24848961371824
2.79000000000001,-18.8619331275705,19.9989018790963,-1.1369687515258
2.80000000000001,-19.0417787074277,20.0672265967611,-1.02544788933336
2.81000000000001,-19.2107203747915,20.1457949405067,-0.935074565715203
2.82000000000001,-19.3770710134439,20.2267974132219,-0.849726399778036
2.83000000000001,-19.5434216520963,20.3077998859372,-0.764378233840869
2.84000000000001,-19.7097722907487,20.3888023586524,-0.679030067903703
2.85000000000001,-19.8761229294011,20.4698048313677,-0.593681901966536
2.86000000000001,-20.0424735680535,20.5508073040829,-0.508333736029369
2.87000000000001,-20.2088242067059,20.6318097767982,-0.422985570092202
2.88000000000001,-20.3751748453583,20.7128122495134,-0.337637404155036
2.89000000000001,-20.5415254840108,20.7938147222287,-0.252289238217869
2.90000000000001,-20.7078761226632,20.8748171949439,-0.166941072280702
2.91000000000001,-20.8742267613156,20.9558196676591,-0.0815929063435355
2.92000000000001,-21.040577399968,21.0368221403744,0.00375525959363123
2.93000000000001,-21.1960809992025,21.1008556503172,0.0952253488853793
2.94000000000001,-21.3006910644874,21.0948304998987,0.205860564588758
2.95000000000001,-21.4053011297723,21.0888053494802,0.316495780292138
2.96000000000001,-21.5099111950572,21.0827801990617,0.427130995995517
2.97000000000001,-21.6145212603421,21.0767550486432,0.537766211698896
2.98000000000001,-21.719131325627,21.0707298982248,0.648401427402275
2.99000000000001,-21.8237413909119,21.0647047478063,0.759036643105654
3.00000000000001,-21.9283514561968,21.0586795973878,0.869671858809033
3.01000000000001,-22.0329615214817,21.0526544469693,0.980307074512412
3.02000000000001,-22.1375715867666,21.0466292965509,1.09094229021579
3.03000000000001,-22.2421816520515,21.0406041461324,1.20157750591917
3.04000000000001,-22.3467917173364,21.0345789957139,1.31221272162255
3.05000000000001,-22.4514017826213,21.0285538452954,1.42284793732593
3.06000000000001,-22.5560118479062,21.022528694877,1.53348315302931
3.07000000000001,-22.6606219131911,21.0165035444585,1.64411836873269
3.08000000000001,-22.765231978476,21.01047839404,1.75475358443607
3.09000000000001,-22.8320261399429,20.9126514795649,1.91937466037805
