"Time [ms]","Current(PhaseA) [A]","Current(PhaseB) [A]","Current(PhaseC) [A]"
0,0,0,0
0.01,3.90034891328174e-06,0.0382469161323614,-0.0382508164812747
0.02,2.88298421789582e-06,0.0776513171379607,-0.0776542001221786
0.03,1.86561952250991e-06,0.11705571814356,-0.117057583763083
0.04,8.48254827124002e-07,0.156460119149159,-0.156460967403986
0.05,-1.69109868261909e-07,0.195864520154759,-0.19586435104489
0.06,-1.18647456364782e-06,0.235268921160358,-0.235267734685794
0.07,-2.20383925903373e-06,0.274673322165957,-0.274671118326698
0.08,-3.22120395441964e-06,0.314077723171557,-0.314074501967602
0.09,-4.23856864980555e-06,0.353482124177156,-0.353477885608506
0.1,-5.25593334519146e-06,0.392886525182755,-0.39288126924941
0.11,-6.27329804057737e-06,0.432290926188355,-0.432284652890314
0.12,-7.29066273596328e-06,0.471695327193954,-0.471688036531218
0.13,-8.3080274313492e-06,0.511099728199554,-0.511091420172122
0.14,-9.3253921267351e-06,0.550504129205153,-0.550494803813026
0.15,-1.0342756822121e-05,0.589908530210752,-0.58989818745393
0.16,-1.13601215175069e-05,0.629312931216351,-0.629301571094834
0.17,-1.23774862128928e-05,0.668717332221951,-0.668704954735738
0.18,-1.33948509082788e-05,0.70812173322755,-0.708108338376642
0.19,-1.44122156036647e-05,0.74752613423315,-0.747511722017546
0.2,-1.54295802990506e-05,0.786930535238749,-0.786915105658449
0.21,-1.64469449944365e-05,0.826334936244348,-0.826318489299353
0.22,-1.74643096898224e-05,0.865739337249948,-0.865721872940257
0.23,-1.84816743852083e-05,0.905143738255547,-0.905125256581161
0.24,-1.94990390805942e-05,0.944548139261146,-0.944528640222065
0.25,-2.05164037759801e-05,0.983952540266746,-0.983932023862969
0.26,-2.1533768471366e-05,1.02335694127235,-1.02333540750387
0.27,-2.2551133166752e-05,1.06276134227794,-1.06273879114478
0.28,-2.35684978621379e-05,1.10216574328354,-1.10214217478568
0.29,-2.45858625575238e-05,1.14157014428914,-1.14154555842659
0.3,-2.56032272529097e-05,1.18097454529474,-1.18094894206749
0.31,-2.66205919482956e-05,1.22037894630034,-1.22035232570839
0.32,-2.76379566436815e-05,1.25978334730594,-1.2597557093493
0.33,-2.86553213390674e-05,1.29918774831154,-1.2991590929902
0.34,-2.96726860344533e-05,1.33859214931714,-1.33856247663111
0.35,-3.06900507298393e-05,1.37799655032274,-1.37796586027201
0.36,-3.17074154252252e-05,1.41740095132834,-1.41736924391291
0.37,-3.27247801206111e-05,1.45680535233394,-1.45677262755382
0.38,-3.3742144815997e-05,1.49620975333954,-1.49617601119472
0.39,-3.47595095113829e-05,1.53561415434514,-1.53557939483563
0.4,-3.57768742067688e-05,1.57501855535074,-1.57498277847653
0.41,-3.67942389021547e-05,1.61442295635634,-1.61438616211743
0.42,-3.78116035975407e-05,1.65382735736194,-1.65378954575834
0.43,-3.88289682929266e-05,1.69323175836754,-1.69319292939924
0.440000000000001,-3.98463329883125e-05,1.73263615937314,-1.73259631304015
0.450000000000001,-4.08636976836984e-05,1.77204056037873,-1.77199969668105
0.460000000000001,-4.18810623790843e-05,1.81144496138433,-1.81140308032195
0.470000000000001,-4.28984270744702e-05,1.85084936238993,-1.85080646396286
0.480000000000001,-4.39157917698561e-05,1.89025376339553,-1.89020984760376
0.490000000000001,-4.4933156465242e-05,1.92965816440113,-1.92961323124467
0.500000000000001,-4.5950521160628e-05,1.96906256540673,-1.96901661488557
0.510000000000001,-4.69678858560139e-05,2.00846696641233,-2.00841999852647
0.520000000000001,-4.79852505513998e-05,2.04787136741793,-2.04782338216738
0.530000000000001,-4.90026152467857e-05,2.08727576842353,-2.08722676580828
0.540000000000001,-5.00199799421716e-05,2.12668016942913,-2.12663014944919
0.550000000000001,-5.10373446375575e-05,2.16608457043473,-2.16603353309009
0.560000000000001,-5.20547093329434e-05,2.20548897144033,-2.20543691673099
0.570000000000001,-5.30720740283294e-05,2.24489337244593,-2.2448403003719
0.580000000000001,-5.40894387237153e-05,2.28429777345153,-2.2842436840128
0.590000000000001,-5.51068034191012e-05,2.32370217445713,-2.32364706765371
0.600000000000001,-5.61241681144871e-05,2.36310657546273,-2.36305045129461
0.610000000000001,-5.7141532809873e-05,2.40251097646833,-2.40245383493551
0.620000000000001,-5.81588975052589e-05,2.44191537747392,-2.44185721857642
0.630000000000001,-5.91762622006448e-05,2.48131977847952,-2.48126060221732
0.640000000000001,-6.01936268960308e-05,2.52072417948512,-2.52066398585823
0.650000000000001,-6.12109915914167e-05,2.56012858049072,-2.56006736949913
0.660000000000001,-6.22283562868026e-05,2.59953298149632,-2.59947075314004
0.670000000000001,-6.32457209821885e-05,2.63893738250192,-2.63887413678094
0.680000000000001,-6.42630856775744e-05,2.67834178350752,-2.67827752042184
0.690000000000001,-6.52804503729603e-05,2.71774618451312,-2.71768090406275
0.700000000000001,0.0206762562964391,2.80732344330733,-2.82799969960376
0.710000000000001,0.0670265435419784,2.88705460209003,-2.95408114563201
0.720000000000001,0.113376830787518,2.96678576087274,-3.08016259166026
0.730000000000001,0.159727118033057,3.04651691965545,-3.2062440376885
0.740000000000001,0.206077405278596,3.12624807843815,-3.33232548371675
0.750000000000001,0.252427692524135,3.20597923722086,-3.45840692974499
0.760000000000001,0.304994918537643,3.28909089836459,-3.59408581690223
0.770000000000001,0.362290520515517,3.37477364581107,-3.73706416632658
0.780000000000001,0.419586122493391,3.46045639325754,-3.88004251575093
0.790000000000001,0.476881724471266,3.54613914070402,-4.02302086517528
0.800000000000001,0.53417732644914,3.63182188815049,-4.16599921459963
0.810000000000001,0.592700583625564,3.71724901484488,-4.30994959847045
0.820000000000002,0.65204227760102,3.80250572770455,-4.45454800530557
0.830000000000002,0.711383971576476,3.88776244056422,-4.5991464121407
0.840000000000002,0.770725665551932,3.97301915342389,-4.74374481897582
0.850000000000002,0.830067359527388,4.05827586628356,-4.88834322581095
0.860000000000002,0.883212562322128,4.14105695676981,-5.02426951909194
0.870000000000002,0.933948018546591,4.22287530522196,-5.15682332376855
0.880000000000002,0.984683474771054,4.3046936536741,-5.28937712844516
0.890000000000002,1.03541893099552,4.38651200212625,-5.42193093312177
0.900000000000002,1.08615438721998,4.4683303505784,-5.55448473779838
0.910000000000002,1.12974842025483,4.54550304297638,-5.67525146323121
0.920000000000002,1.16482286071259,4.6171335492045,-5.78195640991709
0.930000000000002,1.19989730117036,4.68876405543261,-5.88866135660296
0.940000000000002,1.23497174162812,4.76039456166072,-5.99536630328884
0.950000000000002,1.27004618208589,4.83202506788884,-6.10207124997472
0.960000000000002,1.30512062254366,4.90365557411695,-6.2087761966606
0.970000000000002,1.3196739081148,4.96532118248,-6.28499509059479
0.980000000000002,1.32346610026979,5.02176129562112,-6.34522739589091
0.990000000000002,1.32725829242479,5.07820140876225,-6.40545970118703
1,1.33105048457978,5.13464152190337,-6.46569200648315
1.01,1.33484267673478,5.19108163504449,-6.52592431177927
1.02,1.33863486888978,5.24752174818562,-6.58615661707539
1.03,1.34242706104477,5.30396186132674,-6.64638892237151
1.04,1.30265643346879,5.35015849619635,-6.65281492966514
1.05,1.24912912597777,5.39312034845392,-6.64224947443168
1.06,1.19560181848675,5.43608220071148,-6.63168401919823
1.07,1.14207451099573,5.47904405296904,-6.62111856396477
1.08,1.08854720350471,5.5220059052266,-6.61055310873131
1.09,1.0350198960137,5.56496775748416,-6.59998765349785
1.1,0.981492588522677,5.60792960974172,-6.58942219826439
1.11,0.927965281031659,5.65089146199928,-6.57885674303094
1.12,0.866815733592036,5.69455250591996,-6.56136823951199
1.13,0.76035620423579,5.74236985583804,-6.50272606007383
1.14,0.653896674879543,5.79018720575613,-6.44408388063567
1.15,0.547437145523297,5.83800455567421,-6.38544170119751
1.16,0.44097761616705,5.88582190559229,-6.32679952175934
1.17,0.334518086810804,5.93363925551038,-6.26815734232118
1.18,0.228058557454557,5.98145660542846,-6.20951516288302
1.19,0.121599028098311,6.02927395534655,-6.15087298344486
1.2,0.0151394987420644,6.07709130526463,-6.0922308040067
1.21,-0.0913200306141821,6.12490865518272,-6.03358862456854
1.22,-0.197779559970429,6.1727260051008,-5.97494644513038
1.23,-0.304239089326675,6.22054335501889,-5.91630426569221
1.24,-0.410698618682922,6.26836070493697,-5.85766208625405
1.25,-0.516193343839431,6.3317124348642,-5.81551909102477
1.26,-0.61244803501172,6.44448240894375,-5.83203437393203
1.27,-0.708702726184009,6.5572523830233,-5.84854965683929
1.28,-0.804957417356298,6.67002235710285,-5.86506493974655
1.29,-0.901212108528587,6.78279233118239,-5.88158022265381
1.3,-0.997466799700876,6.89556230526194,-5.89809550556107
1.31,-1.09372149087317,7.00833227934149,-5.91461078846832
1.32,-1.18997618204545,7.12110225342104,-5.93112607137558
1.33,-1.28623087321774,7.23387222750059,-5.94764135428284
1.34,-1.38248556439003,7.34664220158013,-5.9641566371901
1.35,-1.47874025556232,7.45941217565968,-5.98067192009736
1.36,-1.56230599839986,7.58814803275232,-6.02584203435245
1.37,-1.62746032600662,7.74005007304039,-6.11258974703377
1.38,-1.69261465361337,7.89195211332846,-6.19933745971509
1.39,-1.75776898122012,8.04385415361653,-6.28608517239641
1.4,-1.82292330882687,8.1957561939046,-6.37283288507773
1.41,-1.88807763643362,8.34765823419267,-6.45958059775905
1.42,-1.95323196404037,8.49956027448074,-6.54632831044037
1.43,-2.01838629164713,8.65146231476881,-6.63307602312168
1.44,-2.08354061925388,8.80336435505688,-6.719823735803
1.45,-2.14464594436792,8.94289430797879,-6.79824836361086
1.46,-2.20362801207726,9.07593645898918,-6.87230844691192
1.47,-2.26261007978659,9.20897860999957,-6.94636853021297
1.48,-2.32159214749593,9.34202076100996,-7.02042861351403
1.49,-2.38057421520527,9.47506291202035,-7.09448869681508
1.5,-2.4395562829146,9.60810506303074,-7.16854878011614
1.51,-2.49853835062394,9.74114721404113,-7.24260886341719
1.52,-2.55773519157201,9.87251167455553,-7.31477648298352
1.53,-2.62055249568728,9.9755950667091,-7.35504257102182
1.54,-2.68336979980256,10.0786784588627,-7.39530865906012
1.55,-2.74618710391784,10.1817618510163,-7.43557474709842
1.56,-2.80900440803312,10.2848452431698,-7.47584083513672
1.57,-2.87182171214839,10.3879286353234,-7.51610692317503
1.58,-2.93463901626367,10.491012027477,-7.55637301121333
1.59,-2.99745632037895,10.5940954196306,-7.59663909925163
1.6,-3.06027362449422,10.6971788117841,-7.63690518728993
1.61,-3.13685477230442,10.7667674302255,-7.6299126579211
1.62,-3.21621515778377,10.8295926808981,-7.61337752311431
1.63,-3.29557554326313,10.8924179315706,-7.59684238830752
1.64,-3.37493592874248,10.9552431822432,-7.58030725350073
1.65,-3.45429631422184,11.0180684329157,-7.56377211869394
1.66,-3.53365669970119,11.0808936835883,-7.54723698388715
1.67,-3.61301708518055,11.1437189342609,-7.53070184908036
1.68,-3.6923774706599,11.2065441849334,-7.51416671427358
1.69,-3.77173785613925,11.269369435606,-7.49763157946679
1.7,-3.87363340450258,11.3026851498915,-7.42905174538892
1.71,-3.98088384305614,11.3289886971147,-7.34810485405854
1.72,-4.0881342816097,11.3552922443378,-7.26715796272817
1.73,-4.19538472016326,11.381595791561,-7.18621107139779
1.74,-4.30263515871682,11.4078993387842,-7.10526418006742
1.75,-4.40988559727038,11.4342028860074,-7.02431728873705
1.76,-4.51713603582394,11.4605064332306,-6.94337039740667
1.77,-4.6243864743775,11.4868099804538,-6.8624235060763
1.78,-4.73163691293106,11.513113527677,-6.78147661474592
1.79,-4.86364725769437,11.5182125568287,-6.65456529913424
1.8,-5.00567284541891,11.5147344775469,-6.50906163212791
1.81,-5.14769843314345,11.5112563982651,-6.36355796512158
1.82,-5.28972402086799,11.5077783189833,-6.21805429811526
1.83,-5.43174960859253,11.5043002397015,-6.07255063110893
1.84,-5.57377519631707,11.5008221604197,-5.9270469641026
1.85,-5.71580078404161,11.4973440811379,-5.78154329709627
1.86,-5.85782637176615,11.4938660018561,-5.63603963008994
1.87,-5.99985195949069,11.4903879225743,-5.49053596308361
1.88,-6.16245419901731,11.5057260748897,-5.34327187587231
1.89,-6.32921133938858,11.5248636585852,-5.19565231919655
1.9,-6.49596847975984,11.5440012422806,-5.04803276252079
1.91,-6.6627256201311,11.5631388259761,-4.90041320584503
1.92,-6.82948276050236,11.5822764096716,-4.75279364916926
1.93,-6.99623990087363,11.6014139933671,-4.6051740924935
1.94,-7.16299704124489,11.6205515770626,-4.45755453581774
1.95,-7.32975418161615,11.6396891607581,-4.30993497914198
1.96,-7.51137552506582,11.7046386141429,-4.19326308907705
1.97,-7.69533660418523,11.7767991951638,-4.08146259097863
1.98,-7.87929768330464,11.8489597761848,-3.9696620928802
1.99,-8.06325876242405,11.9211203572058,-3.85786159478177
2,-8.24721984154346,11.9932809382268,-3.74606109668334
2.01,-8.43118092066288,12.0654415192478,-3.63426059858492
2.02,-8.61514199978228,12.1376021002688,-3.52246010048649
2.03,-8.79883600094836,12.2247282588137,-3.42589225786537
2.04,-8.98202069066855,12.3403934256602,-3.35837273499161
2.05,-9.16520538038874,12.4560585925066,-3.29085321211785
2.06,-9.34839007010893,12.571723759353,-3.2233336892441
2.07,-9.53157475982912,12.6873889261995,-3.15581416637034
2.08,-9.71475944954931,12.8030540930459,-3.08829464349658
2.09,-9.85064905972386,12.9868366850703,-3.13618762534651
2.1,-9.95461989468219,13.214591354906,-3.25997146022381
2.11,-10.0585907296405,13.4423460247416,-3.38375529510111
2.12,-10.1625615645988,13.6701006945772,-3.50753912997841
2.13,-10.2665323995572,13.8978553644128,-3.6313229648557
2.14,-10.3705032345155,14.1256100342484,-3.755106799733
2.15,-10.4744740694738,14.3533647040841,-3.8788906346103
2.16,-10.5784449044322,14.5811193739197,-4.0026744694876
2.17,-10.6824157393905,14.8088740437553,-4.12645830436489
2.18,-10.78151852616,15.0143974610181,-4.2328789348581
2.19,-10.8783304667231,15.2094591123642,-4.33112864564116
2.20000000000001,-10.9751424072862,15.4045207637103,-4.42937835642421
2.21,-11.0719543478492,15.5995824150565,-4.52762806720727
2.22000000000001,-11.1687662884123,15.7946440664026,-4.62587777799033
2.23,-11.2655782289753,15.9897057177487,-4.72412748877339
2.24000000000001,-11.3623901695384,16.1847673690949,-4.82237719955645
2.25,-11.4592021101015,16.379829020441,-4.92062691033951
2.26000000000001,-11.5517933295616,16.5277573790788,-4.97596404951719
2.27,-11.6437649936304,16.6687670892456,-5.0250020956152
2.28000000000001,-11.7357366576992,16.8097767994124,-5.07404014171322
2.29,-11.827708321768,16.9507865095793,-5.12307818781124
2.30000000000001,-11.9196799858369,17.0917962197461,-5.17211623390926
2.31,-12.0116516499057,17.232805929913,-5.22115428000727
2.32000000000001,-12.1036233139745,17.3738156400798,-5.27019232610529
2.33000000000001,-12.1955949780433,17.5148253502466,-5.31923037220331
2.34000000000001,-12.2875666421122,17.6558350604135,-5.36826841830133
2.35000000000001,-12.3820474573979,17.7517361654411,-5.36968870804317
2.36000000000001,-12.4778440471023,17.8239827580177,-5.34613871091537
2.37000000000001,-12.5736406368067,17.8962293505943,-5.32258871378756
2.38000000000001,-12.6694372265111,17.9684759431709,-5.29903871665976
2.39000000000001,-12.7652338162155,18.0407225357475,-5.27548871953196
2.40000000000001,-12.8610304059199,18.1129691283241,-5.25193872240416
2.41000000000001,-12.9568269956243,18.1852157209007,-5.22838872527635
2.42000000000001,-13.0526235853287,18.2574623134773,-5.20483872814855
2.43000000000001,-13.1484201750331,18.3297089060539,-5.18128873102075
2.44000000000001,-13.2442167647375,18.4019554986305,-5.15773873389295
2.45000000000001,-13.3496976393762,18.4605670704045,-5.11086943102829
2.46000000000001,-13.4810982178093,18.4826849100304,-5.00158669222103
2.47000000000001,-13.6124987962425,18.5048027496563,-4.89230395341378
2.48000000000001,-13.7438993746757,18.5269205892822,-4.78302121460652
2.49000000000001,-13.8752999531088,18.5490384289081,-4.67373847579927
2.50000000000001,-14.006700531542,18.571156268534,-4.56445573699201
2.51000000000001,-14.1381011099751,18.5932741081599,-4.45517299818475
2.52000000000001,-14.2695016884083,18.6153919477858,-4.3458902593775
2.53000000000001,-14.4009022668415,18.6375097874117,-4.23660752057024
2.54000000000001,-14.5323028452746,18.6596276270376,-4.12732478176299
2.55000000000001,-14.6637034237078,18.6817454666635,-4.01804204295573
2.56000000000001,-14.7951040021409,18.7038633062894,-3.90875930414848
2.57000000000001,-14.9564518792307,18.7419805472258,-3.78552866799508
2.58000000000001,-15.1299132703838,18.786569456108,-3.65665618572415
2.59000000000001,-15.3033746615369,18.8311583649902,-3.52778370345323
2.60000000000001,-15.4768360526901,18.8757472738724,-3.3989112211823
2.61000000000001,-15.6502974438432,18.9203361827546,-3.27003873891137
2.62000000000001,-15.8237588349963,18.9649250916368,-3.14116625664045
2.63000000000001,-15.9972202261494,19.009514000519,-3.01229377436952
2.64000000000001,-16.1706816173025,19.0541029094012,-2.8834212920986
2.65000000000001,-16.3496577694071,19.108572112263,-2.75891434285581
2.66000000000001,-16.5305314736671,19.1664409861716,-2.63590951250441
2.67000000000001,-16.7114051779271,19.2243098600802,-2.51290468215302
2.68000000000001,-16.8922788821871,19.2821787339888,-2.38989985180162
2.69000000000001,-17.0731525864471,19.3400476078973,-2.26689502145022
2.70000000000001,-17.2540262907071,19.3979164818059,-2.14389019109883
2.71000000000001,-17.434721968899,19.4571069796698,-2.0223850107708
2.72000000000001,-17.6142866579529,19.5246936767793,-1.91040701882648
2.73000000000001,-17.7938513470067,19.5922803738889,-1.79842902688216
2.74000000000001,-17.9734160360605,19.6598670709984,-1.68645103493784
2.75000000000001,-18.1529807251143,19.7274537681079,-1.57447304299352
2.76000000000001,-18.3325454141682,19.7950404652174,-1.4624950510492
2.77000000000001,-18.512110103222,19.8626271623269,-1.35051705910488
2.78000000000001,-18.6916747922758,19.9302138594364,-1.23853906716056
2.79000000000001,-18.8712394813297,19.997800556546,-1.12656107521624
2.80000000000001,-19.0508041703835,20.0653872536555,-1.01458308327192
2.81000000000001,-19.2179959477376,20.1449616981223,-0.926965750384682
2.82000000000001,-19.3836271776701,20.2260481107243,-0.842420933054173
2.83000000000001,-19.5492584076026,20.3071345233263,-0.757876115723664
2.84000000000001,-19.7148896375351,20.3882209359283,-0.673331298393155
2.85000000000001,-19.8805208674676,20.4693073485303,-0.588786481062646
2.86000000000001,-20.0461520974001,20.5503937611322,-0.504241663732137
2.87000000000001,-20.2117833273326,20.6314801737342,-0.419696846401628
2.88000000000001,-20.3774145572651,20.7125665863362,-0.33515202907112
2.89000000000001,-20.5430457871976,20.7936529989382,-0.250607211740611
2.90000000000001,-20.7086770171301,20.8747394115402,-0.166062394410102
2.91000000000001,-20.8743082470626,20.9558258241422,-0.0815175770795929
2.92000000000001,-21.0399394769951,21.0369122367442,0.00302724025091599
2.93000000000001,-21.1891227924488,21.095192400005,0.0939303924438582
2.94000000000001,-21.3006490405435,21.1012582555638,0.199390784979694
2.95000000000001,-21.4121752886381,21.1073241111226,0.30485117751553
2.96000000000001,-21.5237015367327,21.1133899666814,0.410311570051366
2.97000000000001,-21.6352277848274,21.1194558222402,0.515771962587202
2.98000000000001,-21.746754032922,21.125521677799,0.621232355123038
2.99000000000001,-21.8582802810166,21.1315875333578,0.726692747658873
3.00000000000001,-21.9698065291113,21.1376533889166,0.832153140194709
3.01000000000001,-22.0813327772059,21.1437192444754,0.937613532730545
3.02000000000001,-22.1928590253005,21.1497851000342,1.04307392526638
3.03000000000001,-22.3043852733951,21.155850955593,1.14853431780222
3.04000000000001,-22.4159115214898,21.1619168111518,1.25399471033805
3.05000000000001,-22.5274377695844,21.1679826667106,1.35945510287389
3.06000000000001,-22.6299212992195,21.1549190233991,1.47500227582046
3.07000000000001,-22.6900684651582,21.0522945444685,1.63777392068975
3.08000000000001,-22.7502156310968,20.9496700655378,1.80054556555905
3.09000000000001,-22.8103627970355,20.8470455866072,1.96331721042834
