"Time [ms]","Current(PhaseA) [A]","Current(PhaseB) [A]","Current(PhaseC) [A]"
0,0,0,0
0.05,9.76051322794604e-07,0.194896565629187,-0.19489754168051
0.1,-3.95500324928518e-06,0.390919201839225,-0.390915246835976
0.15,-8.88605782136497e-06,0.586941838049262,-0.586932951991441
0.2,-1.38171123934448e-05,0.7829644742593,-0.782950657146907
0.25,-1.87481669655246e-05,0.978987110469337,-0.978968362302373
0.3,-2.36792215376043e-05,1.17500974667937,-1.17498606745784
0.35,-2.86102761096841e-05,1.37103238288941,-1.3710037726133
0.4,-3.35413306817639e-05,1.56705501909945,-1.56702147776877
0.45,-3.84723852538437e-05,1.76307765530949,-1.76303918292424
0.5,-4.34034398259235e-05,1.95910029151953,-1.9590568880797
0.55,-4.83344943980033e-05,2.15512292772956,-2.15507459323517
0.6,-5.32655489700831e-05,2.3511455639396,-2.35109229839063
0.65,-5.81966035421629e-05,2.54716820014964,-2.5471100035461
0.7,0.0306128775336954,2.78856485944939,-2.81917773698309
0.75,0.310440859099404,3.16491033768051,-3.47535119677991
0.8,0.591298859167676,3.5884002615679,-4.17969912073558
0.85,0.871757954118975,4.01950068518013,-4.89125863929911
0.9,1.1118694829669,4.43508981643777,-5.54695929940466
0.95,1.29338638666481,4.79994739943617,-6.09333378610098
1,1.36096794568787,5.09992049133109,-6.46088843701897
1.05,1.28976968437548,5.35319924399834,-6.64296892837383
1.1,1.04544501882783,5.56163031417718,-6.60707533300502
1.15,0.619782213086359,5.78820175710699,-6.40798397019335
1.2,0.0963040065999418,6.02455827794926,-6.1208622845492
1.25,-0.428811460834749,6.29085005928765,-5.86203859845289
1.3,-0.934697937356538,6.85468703491547,-5.91998909755893
1.35,-1.44058441387833,7.4185240105433,-5.97793959666496
1.4,-1.77848484691885,8.16755871984706,-6.38907387292821
1.45,-2.09978558091947,8.91112628478525,-6.81134070386578
1.5,-2.39134779461264,9.58094197904886,-7.18959418443621
1.55,-2.70006250500764,10.1537111119617,-7.45364860695406
1.6,-3.01915415470891,10.6735507168608,-7.65439656215189
1.65,-3.43494027877191,11.0018879491362,-7.56694767036424
1.7,-3.8794020097992,11.2889042913698,-7.40950228157063
1.75,-4.42696941586721,11.4273477274977,-7.0003783116305
1.8,-5.03649337004128,11.5026547210273,-6.46616135098602
1.85,-5.73532187988386,11.4869564515929,-5.75163457170906
1.9,-6.49474612723465,11.5240208701663,-5.02927474293161
1.95,-7.29020089909074,11.5939136710866,-4.30371277199585
2,-8.17827505457964,11.9249262324502,-3.74665117787053
2.05,-9.07330085733352,12.3741283840251,-3.30082752669155
2.1,-9.84025456632733,13.1129014262281,-3.27264685990083
2.15,-10.3298055919555,14.2285982285015,-3.8987926365461
2.2,-10.8135672829502,15.26850455768,-4.45493727472982
2.25,-11.2919506105973,16.2380006016684,-4.94604999107117
2.3,-11.7497583766693,16.9493290849723,-5.19957070830296
2.35,-12.2086396886326,17.6117040925213,-5.40306440388874
2.4,-12.6850931297392,17.9658530102259,-5.28075988048669
2.45,-13.165291491296,18.314858725113,-5.14956723381702
2.5,-13.821789184809,18.421738276588,-4.59994909177901
2.55,-14.4782868783221,18.5286178280631,-4.050330949741
2.6,-15.260906731878,18.7078642696487,-3.44695753777072
2.65,-16.1013517738035,18.9273683463725,-2.826016572569
2.7,-16.9772408262042,19.2154316514683,-2.23819082526405
2.75,-17.8725289775665,19.5589674040932,-1.68643842652661
2.8,-18.7724744522907,19.9158209467002,-1.14334649440955
2.85,-19.6189778161751,20.3286356608934,-0.709657844718198
2.9,-20.4645237481064,20.7424529367924,-0.277929188685936
2.95,-21.2067687285512,21.0061480015497,0.200620727001429
3,-21.7057942718007,20.9250204023304,0.780773869470316
3.05,-22.2048198150502,20.843892803111,1.3609270119392
3.1,-22.7038453582997,20.7627652038916,1.94108015440809
3.15,-23.00757509575,20.1331111703809,2.87446392536905
3.2,-23.2986621745624,19.4679477595225,3.83071441503988
3.25,-23.7251689471339,18.7084446137094,5.01672433342448
3.3,-24.2026818158128,17.9134082197084,6.28927359610435
3.35,-24.7822794826782,17.2864500117232,7.49582947095502
3.4,-25.3672171162571,16.7240585271339,8.6431585891232
3.45,-25.9249659935189,16.1968601808073,9.72810581271156
3.5,-26.7144198873188,16.0668952866592,10.6475246006596
3.55,-27.7001010703349,16.2510548389878,11.4490462313472
3.6,-28.5858298674512,16.4305332425095,12.1552966249417
3.65,-29.3075097702189,16.4741672942644,12.8333424759545
3.7,-29.8667081247623,16.3832548702247,13.4834532545377
3.75,-30.3141059198214,16.1720062507249,14.1420996690967
3.8,-30.4105536142479,15.5830135474629,14.827540066785
3.85,-30.4993846520538,14.9715951622726,15.5277894897813
3.9,-30.4127396392566,13.8435235665023,16.5692160727543
3.95,-30.3260946264594,12.7154519707321,17.6106426557273
4,-30.3108261277544,11.4049557199406,18.9058704078137
4.05,-30.3141212788838,10.0470143471779,20.2671069317058
4.1,-30.5053458418418,8.99518004899002,21.5101657928518
4.15,-30.73116952228,8.11846789616522,22.6127016261148
4.2,-30.9538148911494,7.35551356066454,23.5983013304849
4.25,-31.1617261139963,6.70509175049984,24.4566343634964
4.3,-31.3058295908781,6.12147676001413,25.184352830864
4.35,-31.378017502013,5.53712778568683,25.8408897163261
4.4,-31.1126261953967,4.86007249901513,26.2525536963816
4.45,-30.8472348887805,4.18301721234343,26.664217676437
4.5,-30.2008950468015,3.28233625955856,26.9185587872429
4.55,-29.3894192571539,2.28471665793106,27.1047025992228
4.6,-28.467158401913,1.15614727281777,27.3110111290952
4.65,-27.2600216637178,-0.309150126973228,27.5691717906911
4.7,-25.9555927209395,-2.00746423299687,27.9630569539364
4.75,-24.6546886650123,-3.78353713505909,28.4382258000714
4.8,-23.5153674342896,-5.45816416569584,28.9735315999855
4.85,-22.6484055235149,-6.77974668955845,29.4281522130734
4.9,-22.5165419352581,-7.76371742177239,30.2802593570305
4.95,-22.5361271856697,-8.61994223656983,31.1560694222395
5,-22.4771438478854,-9.41937492708349,31.8965187749688
5.05,-22.3359284035409,-10.1421449829377,32.4780733864786
5.1,-22.0861623380601,-10.796380215062,32.8825425531221
5.15,-21.6851316379685,-11.3754091811214,33.0605408190899
5.2,-21.1394901565769,-11.9570303607092,33.0965205172861
5.25,-20.3505550002085,-12.5430126892375,32.893567689446
5.3,-19.3390746004141,-13.2557409345511,32.5948155349652
5.35,-18.1043356711569,-14.095621333563,32.1999570047199
5.4,-16.5164657683758,-15.2584742568334,31.7749400252092
5.44999999999999,-14.7702731798214,-16.6008997849534,31.3711729647747
5.49999999999999,-12.933666065251,-18.0993662710738,31.0330323363248
5.54999999999999,-11.4182328689162,-19.4254037187331,30.8436365876493
5.59999999999999,-10.1463581574489,-20.5845757818847,30.7309339393337
5.64999999999999,-9.14793942850381,-21.545547212485,30.6934866409888
5.69999999999999,-8.36581575454924,-22.2999764878678,30.665792242417
5.74999999999999,-7.69593377875573,-22.8682925495876,30.5642263283433
5.79999999999999,-7.08922515035141,-23.2678068837964,30.3570320341477
5.84999999999999,-6.42369822683999,-23.3851301576024,29.8088283844424
5.89999999999999,-5.71817818479375,-23.4675980475532,29.185776232347
5.94999999999999,-4.73585481796806,-23.3735232867757,28.1093781047438
5.99999999999999,-3.75353145114237,-23.2794485259983,27.0329799771407
6.04999999999999,-2.60023536207083,-23.2108689164241,25.811104278495
6.09999999999999,-1.03430762578937,-23.2496095838493,24.2839172096387
6.14999999999999,0.820754697969602,-23.4998327941955,22.6790780962259
6.19999999999999,2.71508673531993,-23.9026647539804,21.1875780186604
6.24999999999999,4.25222068968664,-24.3177981975292,20.0655775078426
6.29999999999999,5.21952448740219,-25.0841385217781,19.8646140343758
6.34999999999999,6.05527072195322,-25.8276704278047,19.7723997058515
6.39999999999999,6.76807579854913,-26.4732000443809,19.7051242458318
6.44999999999999,7.37015902341624,-26.9567296509604,19.5865706275441
6.49999999999999,7.86132785645393,-27.2163934269456,19.3550655704917
6.54999999999999,8.27144437408948,-27.2531785003674,18.981734126278
6.59999999999999,8.65059389750634,-27.0475286664068,18.3969347689005
6.64999999999999,9.01721744573361,-26.7438152744038,17.7265978286701
6.69999999999999,9.44117458843955,-26.1915091945594,16.7503346061199
6.74999999999999,9.95423247484788,-25.5635116604803,15.6092791856324
6.79999999999999,10.6267389009697,-24.8580459094921,14.2313070085224
6.84999999999999,11.6282397260399,-24.2203523796787,12.5921126536389
6.89999999999999,12.7983142447055,-23.7419437080379,10.9436294633324
6.94999999999999,13.9997003418332,-23.4616479381192,9.46194759628607
6.99999999999998,15.0726979857359,-23.3688278453026,8.2961298595667
7.04999999999998,15.9616743103652,-23.4322777596281,7.4706034492629
7.09999999999998,16.6764614906302,-23.5135204082641,6.83705891763385
7.14999999999998,17.202357147222,-23.4855832233571,6.28322607613508
7.19999999999998,17.5335430351419,-23.3108016076331,5.77725857249118
7.24999999999998,17.5944863408409,-22.8117426115159,5.21725627067501
7.29999999999998,17.5494993693216,-22.185572660055,4.63607329073337
7.34999999999998,17.4163612768238,-21.3457043785044,3.92934310168055
7.39999999999998,17.1618897022186,-20.211696190138,3.04980648791934
7.44999999999998,16.9074181276134,-19.0776880017716,2.17026987415813
7.49999999999998,16.7098832902609,-17.6942323503518,0.984349060090946
7.54999999999998,16.6936892960899,-16.2907247045544,-0.402964591535573
7.59999999999998,16.9140510990439,-15.0726183300914,-1.84143276895259
7.64999999999998,17.4021768700865,-14.3136000449202,-3.08857682516628
7.69999999999998,18.3441698977555,-14.262073799237,-4.08209609851855
7.74999999999998,19.1924685093339,-14.306754384858,-4.88571412447591
7.79999999999998,19.895197710029,-14.3585734683806,-5.53662424164833
7.84999999999998,20.3982886124499,-14.3296004681398,-6.06868814431007
7.89999999999998,20.7300638944915,-14.2112322342133,-6.51883166027824
7.94999999999998,20.7288925993987,-13.8437207838707,-6.88517181552804
7.99999999999998,20.6476900857211,-13.4112403359373,-7.23644974978381
8.04999999999998,20.2578369018686,-12.6646532426314,-7.5931836592373
8.09999999999998,19.7873096226627,-11.7953837993702,-7.99192582329248
8.14999999999998,19.1856021968103,-10.726626669417,-8.45897552739334
8.19999999999998,18.6397403911331,-9.45743926818854,-9.18230112294455
8.24999999999998,18.1971545409556,-8.16373971875639,-10.0334148221992
8.29999999999998,18.0887141710887,-6.97610349604301,-11.1126106750457
8.34999999999998,18.1758606208318,-6.03832112281737,-12.1375394980144
8.39999999999998,18.3665067362148,-5.29329400412522,-13.0732127320895
8.44999999999998,18.6075634738852,-4.74817091793416,-13.8593925559511
8.49999999999998,18.7248432947035,-4.31682911669636,-14.4080141780072
8.54999999999998,18.7458144517176,-3.88113306232499,-14.8646813893926
8.59999999999997,18.4312956325376,-3.40356394500673,-15.0277316875309
8.64999999999998,18.1167768133576,-2.92599482768847,-15.1907819856692
8.69999999999997,17.5345730503903,-2.32006340601891,-15.2145096443714
8.74999999999998,16.6872418430983,-1.58699607144074,-15.1002457716574
8.79999999999997,15.6737366649805,-0.740444281989636,-14.9332923829908
8.84999999999997,14.4712304150341,0.264632071579463,-14.7358624866136
8.89999999999997,13.2733782561149,1.41210223141992,-14.6854804875349
8.94999999999997,12.3017027297141,2.56272441354843,-14.8644271432626
8.99999999999997,11.5235632937269,3.65406179849997,-15.1776250922269
9.04999999999997,11.2543858786721,4.57508308614613,-15.8294689648183
9.09999999999997,11.4814543082898,5.3118769927003,-16.7933313009901
9.14999999999997,11.6888157832904,5.97504616216769,-17.6638619454581
9.19999999999997,11.8517410501935,6.57938323690249,-18.431124287096
9.24999999999997,11.8620609658683,7.09332225290935,-18.9553832187777
9.29999999999997,11.7835936611209,7.57203971946968,-19.3556333805906
9.34999999999997,11.4794269951619,7.98868835546138,-19.4681153506233
9.39999999999997,11.018024317554,8.41917884231521,-19.4372031598693
9.44999999999997,10.3457958265738,8.8682288145947,-19.2140246411685
9.49999999999997,9.45628861983245,9.42143178067908,-18.8777204005115
9.54999999999997,8.43041638575115,10.0400015996463,-18.4704179853974
9.59999999999997,7.3443516732328,10.8982025049141,-18.2425541781469
9.64999999999997,6.23722609352906,11.8402484123002,-18.0774745058293
9.69999999999997,5.35014283751322,12.7930653295209,-18.1432081670341
9.74999999999997,4.59325570586842,13.7172556193246,-18.3105113251931
9.79999999999997,4.03106907575547,14.5782184654105,-18.6092875411659
9.84999999999997,3.59842785896047,15.2834240993951,-18.8818519583556
9.89999999999997,3.1495149261269,15.9032630496913,-19.0527779758183
9.94999999999997,2.60314846105953,16.2445808463648,-18.8477293074244
9.99999999999997,2.05678199599217,16.5858986430383,-18.6426806390305
10.05,1.49730354190707,16.9161022825104,-18.4134058244175
10.1,0.635745033139226,16.9902528387607,-17.6259978718999
10.15,-0.269082096646949,17.0478258478243,-16.7787437511774
10.2,-1.32255524020728,17.0481271172085,-15.7255718770012
10.25,-2.50510431930255,17.1616494082046,-14.6565450889021
10.3,-3.71320018777714,17.3792594066125,-13.6660592188353
10.35,-4.84217698131693,17.7460801031973,-12.9039031218803
10.4,-5.77316833501899,18.1300473647796,-12.3568790297606
10.45,-6.50173418486179,18.8275355023944,-12.3258013175326
10.5,-7.15851595542893,19.7175040475736,-12.5589880921447
10.55,-7.79008318088453,20.5630726236563,-12.7729894427718
10.6,-8.38513720651177,21.2903628759533,-12.9052256694415
10.65,-8.93547272344053,21.8068853801886,-12.8714126567481
10.7,-9.4533193790772,22.1702810398373,-12.7169616607601
10.75,-9.96638809023348,22.2339811131384,-12.267593022905
10.8,-10.477894585997,22.1996915467416,-11.7217969607446
10.85,-11.118398618583,21.9503494021311,-10.8319507835481
10.9,-11.7826010622899,21.6614994922046,-9.87889842991469
10.95,-12.7239371641813,21.4336225700093,-8.70968540582807
11,-13.7071240210842,21.2149533549853,-7.50782933390117
11.05,-14.6889694780916,21.2588952357941,-6.56992575770253
11.1,-15.6369103033571,21.3925136525317,-5.75560334917466
11.15,-16.5418348589701,21.6263281992253,-5.08449334025518
11.2,-17.3943156672199,21.9915375945954,-4.59722192737549
11.25,-18.1313691405841,22.2540477280982,-4.12267858751406
11.3,-18.7899196146845,22.4467113205995,-3.65679170591509
11.35,-19.2089439440022,22.2899018249006,-3.08095788089838
11.4,-19.4704020030115,21.9032002181301,-2.43279821511858
11.45,-19.7318600620208,21.5164986113596,-1.78463854933878
11.5,-19.8866859379944,20.8537061948167,-0.967020256822244
11.55,-19.9461891048903,19.9441053271127,0.00208377777764585
11.6,-20.0856518764018,18.8749564823629,1.21069539403892
11.65,-20.290450089525,17.7696132984086,2.52083679111637
11.7,-20.6911455808707,16.7742642071286,3.91688137374213
11.75,-21.1508783893998,16.0183366410402,5.13254174835957
11.8,-21.6313196460677,15.4154881175131,6.21583152855463
11.85,-22.5925352838956,15.4360152953296,7.15651998856601
11.9,-23.5253703518673,15.5760826226565,7.94928772921073
11.95,-24.3326428401065,15.6915028802662,8.64113995984024
12,-25.013782393133,15.7333049340236,9.2804774591094
12.05,-25.4153640825531,15.5679450643643,9.84741901818883
12.1,-25.6964868673896,15.2916056334883,10.4048812339014
12.15,-25.6703025604178,14.7321422083705,10.9381603520473
12.2,-25.5440074245225,14.0167524233517,11.5272550011708
12.25,-25.2469604851813,13.0354103188468,12.2115501663345
12.3,-24.9568506269379,11.8806403293114,13.0762102976265
12.35,-24.6752882436187,10.5121824100055,14.1631058336133
12.4,-24.578874087093,9.24529794819513,15.3335761388979
12.45,-24.6117618172143,8.04934929773382,16.5624125194806
12.5,-24.7934468348363,7.17399893907421,17.6194478957621
12.55,-25.0068483847829,6.44759705921727,18.5592513255656
12.6,-25.228152160227,5.84969041295831,19.3784617472687
12.65,-25.4321573581099,5.34096323861086,20.091194119499
12.7,-25.394027681737,4.82125730244665,20.5727703792903
12.75,-25.355898005364,4.30155136628244,21.0543466390816
12.7999999999999,-24.7418438866921,3.55188072556716,21.189963161125
12.8499999999999,-24.1203223522362,2.79922837069215,21.3210939815441
12.8999999999999,-23.4988008177802,2.04657601581714,21.4522248019632
12.9499999999999,-22.4077064895421,0.950067454637647,21.4576390349045
12.9999999999999,-21.2234492432563,-0.27286437954325,21.4963136227995
13.0499999999999,-19.9606296942872,-1.79268891112616,21.7533186054134
13.0999999999999,-18.8376932276004,-3.28601968730369,22.1237129149041
13.1499999999999,-17.888935852472,-4.67318606956207,22.5621219220341
13.1999999999999,-17.2433193699929,-5.81128436029689,23.0546037302898
13.2499999999999,-17.3505236313543,-6.66538362329738,24.0159072546517
13.2999999999999,-17.4281893177608,-7.45764882802121,24.885838145782
13.3499999999999,-17.4994361865915,-8.17778200115999,25.6772181877515
13.3999999999999,-17.4589342978806,-8.78632914960324,26.2452634474839
13.4499999999999,-17.2899378840076,-9.35175641345843,26.6416942974661
13.4999999999999,-16.9359867920604,-9.85528816385078,26.7912749559112
13.5499999999999,-16.4055355550776,-10.3688384102939,26.7743739653715
13.5999999999999,-15.6725033956131,-10.8938875491115,26.5663909447247
13.6499999999999,-14.6736001398098,-11.5632370573864,26.2368371971961
13.6999999999999,-13.5312836571628,-12.3104234644576,25.8417071216203
13.7499999999999,-12.0628511180428,-13.4163926342785,25.4792437523213
13.7999999999999,-10.5862482273351,-14.5995606790695,25.1858089064046
13.8499999999999,-9.24017300529718,-15.818772622805,25.0589456281021
13.8999999999999,-8.12463882347811,-16.915748592627,25.040387416105
13.9499999999999,-7.23517497119058,-17.8826712464211,25.1178462176116
13.9999999999999,-6.54475019105871,-18.7115796885528,25.2563298796116
14.0499999999999,-6.0066353058449,-19.4036985238547,25.4103338296996
14.0999999999999,-5.48656931672015,-19.8494468834157,25.3360162001359
14.1499999999999,-4.9036557270878,-20.2000372688622,25.10369299595
14.1999999999999,-4.15521909658275,-20.3000081062032,24.4552272027859
14.2499999999999,-3.40678246607771,-20.3999789435441,23.8067614096218
14.2999999999999,-2.57045920509885,-20.4654228443118,23.0358820494107
14.3499999999999,-1.48295378418402,-20.4321879078355,21.9151416920195
14.3999999999999,-0.14893462256091,-20.4432959944121,20.592230616973
14.4499999999999,1.42518645291111,-20.6364560101575,19.2112695572464
14.4999999999999,2.97998990162389,-20.9604278627656,17.9804379611417
14.5499999999999,4.35147924242667,-21.3655238949794,17.0140446525527
14.5999999999999,5.34737607626056,-21.8926270475659,16.5452509713053
14.6499999999999,6.084563457349,-22.6948800825714,16.6103166252224
14.6999999999999,6.76141291425106,-23.4693770245855,16.7079641103345
14.7499999999999,7.3694225615901,-24.1348234904328,16.7654009288428
14.7999999999999,7.92305093689343,-24.6432134306537,16.7201624937603
14.8499999999999,8.40556004643776,-24.8899996632894,16.4844396168516
14.8999999999999,8.87708879406929,-25.0045047537312,16.1274159596619
14.9499999999999,9.32579137063074,-24.8440214599064,15.5182300892757
14.9999999999999,9.81836884034373,-24.5396106205096,14.7212417801659
15.0499999999999,10.3494191893369,-24.1089930444543,13.7595738551174
15.0999999999999,11.1212772971756,-23.6043479296146,12.483070632439
15.1499999999999,11.9932798734345,-23.1104139550653,11.1171340816308
15.1999999999999,13.1242226572276,-22.7627582875696,9.63853563034191
15.2499999999999,14.2084633594924,-22.6299421131902,8.42147875369779
15.2999999999999,15.2312781477553,-22.6439945026679,7.41271635491263
15.3499999999999,16.1604937453278,-22.793380071008,6.63288632568024
15.3999999999999,16.9898840380318,-23.0393467915384,6.04946275350665
15.4499999999999,17.6124629763943,-23.1850246910189,5.57256171462468
15.4999999999999,18.0675311729406,-23.1357815413995,5.06825036845897
15.5499999999999,18.3058794517997,-22.8319630166795,4.52608356487978
15.5999999999999,18.5442277306588,-22.5281444919594,3.9839167613006
15.6499999999999,18.5098341734602,-21.7075049475854,3.19767077412526
15.6999999999999,18.4682749851004,-20.8732871826615,2.40501219756118
15.7499999999999,18.3774087353147,-19.7656681400659,1.38825940475122
