"Time [ms]","Current(PhaseA) [A]","Current(PhaseB) [A]","Current(PhaseC) [A]"
0,0,0,0
0.1,-3.47708835481065e-06,0.389203836372266,-0.389200359283911
0.2,-1.28953834109209e-05,0.779505874465266,-0.779492979081855
0.3,-2.23136784670312e-05,1.16980791255827,-1.1697855988798
0.4,-3.17319735231414e-05,1.56010995065127,-1.56007821867774
0.5,-4.11502685792517e-05,1.95041198874427,-1.95037083847569
0.6,-5.05685636353619e-05,2.34071402683727,-2.34066345827363
0.7,0.0342150343000393,2.77677163067653,-2.81098666497656
0.8,0.654158547364997,3.54870493493847,-4.20286348230347
0.9,1.16670300724919,4.39498888131857,-5.56169188856776
1,1.41306179229282,5.06123063212495,-6.47429242441777
1.1,1.11814683752747,5.51637854915501,-6.63452538668247
1.2,0.188512397701704,5.97638592500262,-6.16489832270433
1.3,-0.847568830939659,6.81173565438778,-5.96416682344813
1.4,-1.70954269501849,8.13234652969406,-6.42280383467557
1.5,-2.32730636103162,9.54685831519707,-7.21955195416545
1.6,-2.96029797823617,10.6419781222278,-7.68168014399159
1.7,-3.85029658901806,11.2657347387885,-7.41543814977044
1.8,-5.03291690928751,11.4898728782456,-6.45695596895804
1.9,-6.47871783273894,11.5001209474381,-5.02140311469919
2,-8.10792040935663,11.8624146936158,-3.75449428425915
2.1,-9.72075967007379,13.0118848381949,-3.29112516812118
2.2,-10.6476456920711,15.1316412583559,-4.48399556628478
2.3,-11.568653894222,16.8000226057616,-5.23136871153951
2.4,-12.4959543685314,17.8095376442117,-5.31358327568027
2.5,-13.6224433942186,18.2584269479094,-4.63598355369087
2.6,-15.035094484817,18.528670552549,-3.49357606773196
2.7,-16.6954529329937,19.0206826925706,-2.32522975957696
2.8,-18.4708636138421,19.7401540922804,-1.26929047843827
2.9,-20.2076286694147,20.61370304547,-0.406074376055286
3,-21.5514758996389,20.94421940331,0.607256496329006
3.1,-22.4673642815961,20.5678185750097,1.89954570658641
3.2,-23.0940143716207,19.3755873183585,3.71842705326223
3.3,-23.9931440607651,17.8242366552436,6.16890740552155
3.4,-25.197791168489,16.6470175130963,8.55077365539271
3.5,-26.6027363092205,16.0230639355801,10.5796723736403
3.6,-28.5206795591822,16.4062774981815,12.1144020610007
3.7,-29.7735379574224,16.3438701209839,13.4296678364385
3.8,-30.2736829453418,15.5246318096887,14.7490511356532
3.9,-30.2392939667807,13.7718851261418,16.4674088406388
4,-30.1486292745835,11.3436361041279,18.8049931704555
4.1,-30.4395644527481,8.97659555113831,21.4629689016097
4.2,-30.9869128007607,7.368628240518,23.6182845602428
4.3,-31.3393044683166,6.13480647551075,25.2044979928059
4.4,-31.133431846512,4.86779033450422,26.2656415120077
4.5,-30.2204820200121,3.29159850189204,26.92888351812
4.6,-28.4696690002138,1.15787040807493,27.3117985921389
4.7,-25.9519796561675,-2.01007674484672,27.9620564010142
4.8,-23.5341195810935,-5.4554591901801,28.9895787712736
4.9,-22.5411637867233,-7.76025816911976,30.301421955843
5,-22.5672831333981,-9.38664988377099,31.9539330171691
5.1,-22.215679781143,-10.7471462134036,32.9628259945467
5.2,-21.3358987652155,-11.8791464314451,33.2150451966606
5.3,-19.6287650150349,-13.1443939205279,32.7731589355629
5.4,-16.895491401522,-15.1205641126032,32.0160555141252
5.5,-13.3471435199712,-17.9486762321361,31.2958197521073
5.6,-10.4411583922383,-20.475157484165,30.9163158764032
5.7,-8.54612236505747,-22.2292918589908,30.7754142240483
5.8,-7.20238521416735,-23.2185124787435,30.4208976929108
5.9,-5.77531938643974,-23.4451141154938,29.2204335019336
6,-3.71483343677519,-23.2899252283266,27.0047586651018
6.1,-0.856680679912685,-23.3254400341773,24.18212071409
6.2,3.06306604647554,-24.0773363600942,21.0142703136187
6.3,5.52511626079899,-25.2485705818609,19.7234543210619
6.4,6.90397056922852,-26.5467424103893,19.6427718411608
6.5,7.84779308270844,-27.1957270536761,19.3479339709677
6.6,8.526122145498,-26.9475450680418,18.4214229225438
6.7,9.2394549116053,-26.0432943535762,16.8038394419709
6.8,10.3430141604763,-24.6541959114214,14.3111817509451
6.9,12.4086094359072,-23.4544718830715,11.0458624471642
7.00000000000001,14.5908214585262,-23.0548656486416,8.46404419011544
7.10000000000001,16.2581663594708,-23.2571880369927,6.99902167752185
7.20000000000001,17.1829899451614,-23.1209394934193,5.93794954825794
7.30000000000001,17.2076444333426,-22.0052756715792,4.79763123823657
7.40000000000001,16.8353856107404,-20.028493110043,3.19310749930259
7.50000000000001,16.4119171121218,-17.532545382254,1.12062827013219
7.60000000000001,16.6180492346486,-14.903246586223,-1.71480264842553
7.70000000000001,18.1208467476672,-14.1485863800116,-3.97226036765567
7.80000000000001,19.7235051004893,-14.2694922734588,-5.45401282703048
7.90000000000001,20.540233365162,-14.1082210468358,-6.43201231832615
8.00000000000001,20.4085419106705,-13.2772539225668,-7.13128798810366
8.10000000000001,19.5159699377432,-11.6456698726856,-7.87030006505763
8.20000000000001,18.370423452167,-9.31973027272262,-9.05069317944439
8.3,17.9003775788921,-6.90049012468734,-10.9998874542047
8.4,18.2833141411225,-5.25309936814819,-13.0302147729743
8.5,18.651440235402,-4.28897178243964,-14.3624684529624
8.6,18.3774775082765,-3.3771300077542,-15.0003475005223
8.7,17.5357654080084,-2.32789618687442,-15.207869221134
8.8,15.6499764687188,-0.734454115571161,-14.9155223531477
8.9,13.2388116429855,1.42326357524963,-14.6620752182351
9,11.4882996937263,3.66386728050709,-15.1521669742334
9.1,11.5123835255011,5.29086545092928,-16.8032489764303
9.2,11.9272558407292,6.53821582590739,-18.4654716666366
9.3,11.8833132927278,7.51919216579666,-19.4025054585245
9.4,11.173322213262,8.34534032790335,-19.5186625411653
9.5,9.68310014797747,9.32361423331948,-19.006714381297
9.6,7.62281605680428,10.7889400734408,-18.4117561302451
9.7,5.58834500781786,12.6947774981561,-18.2831225059739
9.8,4.19631109133813,14.5057238857642,-18.7020349771023
9.9,3.27589882901943,15.8095718341983,-19.0854706632178
9.99999999999999,2.14181784406065,16.5262791448308,-18.6680969888914
10.1,0.643778900603425,16.982038232798,-17.6258171334014
10.2,-1.43506228618675,17.0944879830787,-15.6594256968919
10.3,-3.91783471289248,17.4852198677166,-13.5673851548242
10.4,-5.96712852214321,18.2432251515369,-12.2760966293937
10.5,-7.15688518317473,19.7108647017016,-12.5539795185268
10.6,-8.26411786193982,21.1968010468279,-12.932683184888
10.7,-9.28190438144439,22.0368609439702,-12.7549565625258
10.8,-10.2807639001834,22.0450196009659,-11.7642557007826
10.9,-11.5573604196168,21.4817416166039,-9.92438119698701
11,-13.4149921716307,20.9813871974631,-7.56639502583239
11.1,-15.2745691467693,21.1180005011349,-5.84343135436549
11.2,-17.0244464059901,21.7408984240888,-4.71645201809872
11.3,-18.4582934504036,22.2456774324639,-3.78738398206038
11.4,-19.162065149807,21.7165619347849,-2.55449678497798
11.5,-19.6145557948082,20.7186475317949,-1.10409173698675
11.6,-19.8305859724737,18.7438893660582,1.08669660641546
11.7,-20.4620727477561,16.6694604640898,3.79261228366634
11.8,-21.4227510389133,15.3106813274945,6.11206971141877
11.9,-23.404500260593,15.51945233782,7.88504792277305
12,-24.8898978210665,15.6736235428586,9.21627427820801
12.1,-25.5308995833427,15.2121659688847,10.318733614458
12.2,-25.3315987171585,13.9162084134529,11.4153903037056
12.3,-24.7277980005954,11.7765966150263,12.9512013855691
12.4,-24.3951419502518,9.17338832879705,15.2217536214548
12.5,-24.7337347324521,7.15866301616286,17.5750717162893
12.6,-25.2212409700883,5.84766357642418,19.3735773936641
12.7,-25.3760925807528,4.81655909495273,20.5595334858001
12.8,-24.7606101692156,3.56428518906783,21.1963249801478
12.9,-23.4966770476406,2.049475801261,21.4472012463796
13,-21.1920631169553,-0.284139814981198,21.4762029319364
13.1,-18.8207966550231,-3.28830495572025,22.1091016107434
13.2,-17.2193574996629,-5.81674711635552,23.0361046160184
13.3,-17.4854961128392,-7.42681359917243,24.9123097120117
13.4,-17.5512799693898,-8.73782362285677,26.2891035922466
13.5,-17.0786595575278,-9.78626774137383,26.8649272989016
13.6,-15.8890769932131,-10.7969289137975,26.6860059070106
13.7,-13.8415393723965,-12.1813122764276,26.0228516488239
13.8,-10.9349575443592,-14.4597979067961,25.3947554511553
13.9,-8.40258445371983,-16.8023210661008,25.2049055198207
14,-6.73116913976806,-18.6289268295805,25.3600959693485
14.1,-5.62565288468574,-19.79655623993,25.4222091246158
14.2,-4.24406857435924,-20.2671590998523,24.5112276742116
14.3,-2.52357948403527,-20.4588132332309,22.9823927172662
14.4,-0.00229633520908262,-20.4841583232174,20.4864546584265
14.5,3.30530199712772,-21.1077556954036,17.8024536982759
14.6,5.6245758904423,-22.0321202788714,16.4075443884291
14.7,6.86133123189295,-23.5170939565198,16.6557627246269
14.8,7.86296392622761,-24.583842595281,16.7208786690534
14.9,8.73459846395724,-24.8907927739418,16.1561943099845
15,9.62256029144004,-24.3862780026008,14.7637177111609
15.1,10.8667259463366,-23.4071374342603,12.5404114879237
15.2,12.7832725244863,-22.4938663243466,9.71059379986034
15.3,14.8207560141085,-22.3450314084908,7.52427539438231
15.4,16.5889645137464,-22.776557671523,6.18759315777658
15.5,17.6996733676489,-22.9036556805324,5.20398231288356
15.6,18.1700873429662,-22.2679930263225,4.09790568335631
15.7,18.1582565894659,-20.6788046069642,2.52054801749824
15.8,18.044203237473,-18.3543164405046,0.310113203031575
15.9,18.4535158012508,-15.94387114535,-2.50964465590092
16,19.6395320855762,-14.8144166408516,-4.82511544472471
16.1,21.504931745059,-15.0381458609156,-6.46678588414339
16.2,22.6577345455244,-15.0208079291607,-7.63692661636361
16.3,22.8655891441033,-14.3325718336209,-8.53301731048246
16.4,22.3238140887267,-12.8638925535627,-9.45992153516402
16.5,21.4407623408026,-10.6165320037414,-10.8242303370612
16.6,20.9861135242831,-8.09341537955416,-12.8926981447289
16.7,21.3049668630695,-6.21455028054423,-15.0904165825252
16.8,21.7786614361862,-5.08710515604454,-16.6915562801416
16.9,21.7886320405045,-4.1424685318337,-17.6461635086708
17,20.8722100944628,-2.90505643893669,-17.9671536555261
17.1,19.3933436975492,-1.39456842460738,-17.9987752729419
17.1999999999999,17.0135031611334,0.855972448040169,-17.8694756091737
17.3,14.8878588285301,3.49494472373418,-18.3828035522642
17.3999999999999,14.1373516885048,5.50967622483436,-19.6470279133391
17.5,14.5099966962451,6.93119191047757,-21.4411886067227
17.5999999999999,14.5650294870934,8.06762676492254,-22.632656252016
17.6999999999999,14.0263888812405,8.98227284452205,-23.0086617257626
17.7999999999999,12.6718509380531,9.95172992837112,-22.6235808664242
17.8999999999999,10.4975309365383,11.4069335886258,-21.9044645251642
17.9999999999999,7.98777558040959,13.5236376248111,-21.5114132052207
18.0999999999999,6.05327618679057,15.5563372999823,-21.6096134867729
18.1999999999999,4.93564448570561,17.0817778346097,-22.0174223203154
18.2999999999999,3.81188438412,17.9735109777817,-21.7853953619017
18.3999999999999,2.43412130912249,18.4157534877087,-20.8498747968312
18.4999999999999,0.515527864024598,18.5995258206578,-19.1150536846824
18.5999999999999,-2.15938374120577,18.803418071184,-16.6440343299781
18.6999999999999,-4.83873362535852,19.5446680258515,-14.7059344004929
18.7999999999999,-6.40497153230489,20.7003747134571,-14.2954031811522
18.8999999999999,-7.4994957756777,22.2051837122441,-14.7056879365664
18.9999999999999,-8.50826973202629,23.2049868506837,-14.6967171186574
19.0999999999999,-9.42946117555361,23.3756178131542,-13.9461566376005
19.1999999999999,-10.4900874874126,22.7846479099234,-12.2945604225108
19.2999999999999,-12.0719014627404,21.9490634674402,-9.87716200469979
19.3999999999999,-14.0802725754123,21.592988559718,-7.51271598430572
19.4999999999999,-15.9364022885866,21.8799451107185,-5.94354282213195
19.5999999999999,-17.4720099826559,22.4413920115904,-4.96938202893447
19.6999999999999,-18.3986727388441,22.2908382267396,-3.89216548789547
19.7999999999999,-18.7300553846293,21.2403041123962,-2.51024872776681
19.8999999999999,-18.9083193681918,19.6649156891026,-0.756596320910768
19.9999999999999,-19.1450695175849,17.3229604135568,1.82210910402812
20.0999999999999,-19.9288588584517,15.4972544036695,4.43160445478221
20.1999999999999,-21.5775369985145,15.1568966995584,6.42064029895601
20.2999999999999,-23.2998262565006,15.4111060972085,7.88872015929209
20.3999999999999,-24.2102678501851,15.2175571818254,8.99271066835965
20.4999999999999,-24.174516058834,14.22327346742,9.95124259141389
20.5999999999999,-23.5394789101521,12.4078472296066,11.1316316805455
20.6999999999999,-22.8673158530944,9.90262258038887,12.9646932727056
20.7999999999999,-22.8892853112257,7.56024637423668,15.329038936989
20.8999999999999,-23.3615699673654,6.00554399801374,17.3560259693516
20.9999999999999,-23.7221399518358,4.98920735148337,18.7329326003524
21.0999999999999,-23.3115226003041,3.87010598996272,19.4414166103413
21.1999999999999,-22.4241258526992,2.59281208583548,19.8313137668637
21.2999999999999,-20.4134504891408,0.629912628231981,19.7835378609088
21.3999999999999,-17.9428524389456,-2.05503612672771,19.9978885656733
21.4999999999999,-16.0905856018544,-4.69803673377439,20.7886223356288
21.5999999999999,-15.9247191456663,-6.49772660134386,22.4224457470102
21.6999999999999,-16.1574051000979,-7.87673007399943,24.0341351740973
21.7999999999999,-15.9513069470254,-8.96355568682129,24.9148626338467
21.8999999999999,-15.0600733283204,-9.91987986122135,24.9799531895418
21.9999999999999,-13.3430556222944,-11.0977184814113,24.4407741037057
22.0999999999999,-10.8245576475291,-12.9537318146395,23.7782894621686
22.1999999999999,-8.2221479768771,-15.2402708493016,23.4624188261787
22.2999999999999,-6.4647772515156,-17.1685748807419,23.6333521322575
22.3999999999999,-5.35796419511607,-18.5834250729986,23.9413892681146
22.4999999999999,-4.22693072240715,-19.346125924815,23.5730566472221
22.5999999999999,-2.53872839812255,-19.5571776543936,22.0959060525161
22.6999999999999,-0.34713909660852,-19.6165037105424,19.9636428071509
22.7999999999999,2.66502502546225,-20.0068155815293,17.3417905560671
22.8999999999999,5.29009558905645,-20.8169954651167,15.5268998760603
22.9999999999999,6.62281611077542,-22.2111510715897,15.5883349608143
23.0999999999999,7.67864645218417,-23.5115089132304,15.8328624610463
23.1999999999999,8.61483698698163,-24.1334514085105,15.5186144215289
23.2999999999999,9.51879936534434,-23.9708402209742,14.4520408556299
23.3999999999999,10.6362511061693,-23.1740924534141,12.5378413472447
23.4999999999999,12.392760019376,-22.2642260348136,9.87146601543755
23.5999999999999,14.435589110143,-22.0100206871221,7.57443157697912
23.6999999999999,16.2629205594472,-22.381383144815,6.11846258536782
23.7999999999999,17.6138393416851,-22.7636741972244,5.14983485553938
23.8999999999999,18.2848460771412,-22.2833768886982,3.99853081155698
23.9999999999999,18.4604216944712,-21.0267616157987,2.56633992132745
24.0999999999999,18.4762796865811,-19.112662002429,0.636382315847938
24.1999999999999,18.7807320127321,-16.6504794398635,-2.1302525728686
24.2999999999999,19.6120920861955,-14.9929686995178,-4.61912338667772
24.3999999999999,21.573890346134,-15.1309795924863,-6.44291075364764
24.4999999999999,22.9730112862737,-15.2423103033519,-7.73070098292184
24.5999999999999,23.5220567061539,-14.7918946901807,-8.73016201597316
24.6999999999999,23.2564147596384,-13.5939781180442,-9.66243664159422
24.7999999999999,22.4500329014864,-11.5805756591526,-10.8694572423338
24.8999999999999,21.7920428926315,-8.9250895355323,-12.8669533570992
24.9999999999999,22.0435617550035,-6.86914779511601,-15.1744139598875
25.0999999999999,22.544133155853,-5.53130969195913,-17.0128234638939
25.1999999999999,22.7348534321954,-4.56043297645122,-18.1744204557442
25.2999999999999,22.312089404776,-3.51258765380398,-18.799501750972
25.3999999999999,20.9202839216076,-2.02731411676226,-18.8929698048453
25.4999999999999,18.6819992557826,0.073807885813646,-18.7558071415962
25.5999999999999,16.3242684416649,2.79369499509626,-19.1179634367612
25.6999999999999,14.8106661632461,5.16924815405704,-19.9799143173031
25.7999999999999,15.1666023060745,6.71752596982033,-21.8841282758948
25.8999999999999,15.3119105944783,7.94991042994095,-23.2618210244193
25.9999999999999,14.9423362365514,8.95026338338333,-23.8925996199347
26.0999999999999,13.8425397673804,9.89797370193198,-23.7405134693123
26.1999999999999,11.9080245370611,11.1745349573154,-23.0825594943765
26.2999999999999,9.29068041838688,13.212687547653,-22.5033679660398
26.3999999999999,7.06516953044564,15.3644432064664,-22.429612736912
26.4999999999999,5.62237713116442,17.1431039567956,-22.76548108796
26.5999999999999,4.5959832232223,18.2579823249136,-22.8539655481359
26.6999999999999,3.35197805013089,18.8535426991611,-22.205520749292
26.7999999999999,1.54772094380305,19.0506601185514,-20.5983810623544
26.8999999999999,-0.945847503616846,19.1325195155142,-18.1866720118973
26.9999999999999,-3.9054841894108,19.7162652101148,-15.810781020704
27.0999999999999,-5.91719711124277,20.6378447030564,-14.7206475918136
27.1999999999999,-7.05751693375327,22.1482929865023,-15.090776052749
27.2999999999999,-8.08317966687958,23.3058103581894,-15.2226306913099
27.3999999999999,-9.00921867807734,23.7115067762053,-14.7022880981279
27.4999999999999,-9.96630935682845,23.3456128064752,-13.3793034496467
27.5999999999999,-11.2875905084311,22.4793226744355,-11.1917321660044
27.6999999999999,-13.2601330552007,21.8203381021398,-8.56020504693916
27.7999999999999,-15.1921953088042,21.8571720503219,-6.66497674151767
27.8999999999999,-16.8967295062937,22.4057834095638,-5.50905390327017
27.9999999999999,-17.9857580850007,22.4988821229662,-4.51312403796552
28.0999999999999,-18.5722896954016,21.9401359318879,-3.36784623648637
28.1999999999999,-18.6953272073989,20.4278408996854,-1.73251369228647
28.2999999999999,-18.7650652170728,18.1704732715504,0.594591945522383
28.3999999999999,-19.3380029246599,15.9791317817796,3.35887114288028
28.4999999999999,-20.5736279958731,14.9987786318837,5.57484936398934
28.5999999999999,-22.4428902379245,15.2517246922678,7.19116554565674
28.6999999999999,-23.6202406118167,15.2381149152496,8.38212569656705
28.7999999999999,-23.9033410341047,14.5564526829181,9.34688835118661
28.8999999999999,-23.4386549401057,13.0924489409863,10.3462059991194
28.9999999999999,-22.6069856350832,10.7664624877336,11.8405231473495
29.0999999999999,-22.3295778566003,8.19133541337558,14.1382424432247
29.1999999999999,-22.7248535270604,6.39375726772091,16.3310962593395
29.2999999999999,-23.1840297934452,5.25007302321231,17.9339567702329
29.3999999999999,-23.0996316688863,4.23408529482241,18.865546374064
29.4999999999999,-22.4682678270422,3.08951198838556,19.3787558386566
29.5999999999999,-20.7477747222865,1.37682878959542,19.370945932691
29.6999999999999,-18.3308414988082,-1.0520428002432,19.3828842990514
29.7999999999999,-16.1749326119411,-3.81876345033232,19.9936960622734
29.8999999999999,-15.4039279346713,-5.86898027022672,21.2729082048981
29.9999999999999,-15.7184494329694,-7.33239684184655,23.0508462748159
30.0999999999999,-15.7376140203753,-8.50223203592498,24.2398460563002
30.1999999999999,-15.1459488388107,-9.44858685875075,24.5945356975614
30.2999999999999,-13.7270864530778,-10.4642893954186,24.1913758484964
30.3999999999999,-11.4600553260852,-12.0191321850162,23.4791875111014
30.4999999999999,-8.79222205988372,-14.2525887108987,23.0448107707825
30.5999999999999,-6.69322404869257,-16.3557364918033,23.0489605404959
30.6999999999999,-5.51444585547724,-17.906526576072,23.4209724315492
30.7999999999999,-4.40321780925521,-18.8107977413844,23.2140155506397
30.8999999999999,-2.95966339957563,-19.2713319959871,22.2309953955627
30.9999999999999,-0.981563887131266,-19.3804169453717,20.361980832503
31.0999999999999,1.77505331238783,-19.5679525621099,17.7928992497221
31.1999999999999,4.62376003252726,-20.3186194721578,15.6948594396305
31.2999999999999,6.28062386915537,-21.4713648199379,15.1907409507825
31.3999999999999,7.38872842530545,-22.9485899620214,15.5598615367159
31.4999999999999,8.37177244556627,-23.8589783427408,15.4872058971744
31.5999999999999,9.27487717503341,-23.9431782231606,14.6683010481272
