"Time [ms]","Current(PhaseA) [A]","Current(PhaseB) [A]","Current(PhaseC) [A]"
0,0,0,0
0.01,5.24304638148217e-06,0.0374603596649684,-0.0374656027113499
0.02,4.54020214053309e-06,0.0759291122953791,-0.0759336524975197
0.03,3.83735789958402e-06,0.11439786492579,-0.114401702283689
0.04,3.13451365863494e-06,0.152866617556201,-0.152869752069859
0.05,2.43166941768586e-06,0.191335370186611,-0.191337801856029
0.06,1.72882517673678e-06,0.229804122817022,-0.229805851642199
0.07,1.0259809357877e-06,0.268272875447433,-0.268273901428369
0.08,3.23136694838619e-07,0.306741628077844,-0.306741951214538
0.09,-3.7970754611046e-07,0.345210380708254,-0.345210001000708
0.1,-1.08255178705954e-06,0.383679133338665,-0.383678050786878
0.11,-1.78539602800862e-06,0.422147885969076,-0.422146100573048
0.12,-2.4882402689577e-06,0.460616638599487,-0.460614150359218
0.13,-3.19108450990678e-06,0.499085391229897,-0.499082200145387
0.14,-3.89392875085586e-06,0.537554143860308,-0.537550249931557
0.15,-4.59677299180493e-06,0.576022896490719,-0.576018299717727
0.16,-5.29961723275401e-06,0.61449164912113,-0.614486349503897
0.17,-6.00246147370309e-06,0.65296040175154,-0.652954399290066
0.18,-6.70530571465217e-06,0.691429154381951,-0.691422449076236
0.19,-7.40814995560125e-06,0.729897907012362,-0.729890498862406
0.2,-8.11099419655033e-06,0.768366659642773,-0.768358548648576
0.21,-8.81383843749941e-06,0.806835412273183,-0.806826598434746
0.22,-9.51668267844849e-06,0.845304164903594,-0.845294648220915
0.23,-1.02195269193976e-05,0.883772917534005,-0.883762698007085
0.24,-1.09223711603466e-05,0.922241670164416,-0.922230747793255
0.25,-1.16252154012957e-05,0.960710422794826,-0.960698797579425
0.26,-1.23280596422448e-05,0.999179175425237,-0.999166847365595
0.27,-1.30309038831939e-05,1.03764792805565,-1.03763489715176
0.28,-1.3733748124143e-05,1.07611668068606,-1.07610294693793
0.29,-1.44365923650921e-05,1.11458543331647,-1.1145709967241
0.3,-1.51394366060411e-05,1.15305418594688,-1.15303904651027
0.31,-1.58422808469902e-05,1.19152293857729,-1.19150709629644
0.32,-1.65451250879393e-05,1.2299916912077,-1.22997514608261
0.33,-1.72479693288884e-05,1.26846044383811,-1.26844319586878
0.34,-1.79508135698375e-05,1.30692919646852,-1.30691124565495
0.35,-1.86536578107865e-05,1.34539794909893,-1.34537929544112
0.36,-1.93565020517356e-05,1.38386670172935,-1.38384734522729
0.37,-2.00593462926847e-05,1.42233545435976,-1.42231539501346
0.38,-2.07621905336338e-05,1.46080420699017,-1.46078344479963
0.39,-2.14650347745829e-05,1.49927295962058,-1.4992514945858
0.4,-2.21678790155319e-05,1.53774171225099,-1.53771954437197
0.41,-2.2870723256481e-05,1.5762104648814,-1.57618759415814
0.42,-2.35735674974301e-05,1.61467921751181,-1.61465564394431
0.43,-2.42764117383792e-05,1.65314797014222,-1.65312369373048
0.440000000000001,-2.49792559793283e-05,1.69161672277263,-1.69159174351665
0.450000000000001,-2.56821002202773e-05,1.73008547540304,-1.73005979330282
0.460000000000001,-2.63849444612264e-05,1.76855422803345,-1.76852784308899
0.470000000000001,-2.70877887021755e-05,1.80702298066387,-1.80699589287516
0.480000000000001,-2.77906329431246e-05,1.84549173329428,-1.84546394266133
0.490000000000001,-2.84934771840737e-05,1.88396048592469,-1.8839319924475
0.500000000000001,-2.91963214250228e-05,1.9224292385551,-1.92240004223367
0.510000000000001,-2.98991656659718e-05,1.96089799118551,-1.96086809201984
0.520000000000001,-3.06020099069209e-05,1.99936674381592,-1.99933614180601
0.530000000000001,-3.130485414787e-05,2.03783549644633,-2.03780419159218
0.540000000000001,-3.20076983888191e-05,2.07630424907674,-2.07627224137835
0.550000000000001,-3.27105426297682e-05,2.11477300170715,-2.11474029116452
0.560000000000001,-3.34133868707172e-05,2.15324175433756,-2.15320834095069
0.570000000000001,-3.41162311116663e-05,2.19171050696797,-2.19167639073686
0.580000000000001,-3.48190753526154e-05,2.23017925959838,-2.23014444052303
0.590000000000001,-3.55219195935645e-05,2.2686480122288,-2.2686124903092
0.600000000000001,-3.62247638345136e-05,2.30711676485921,-2.30708054009537
0.610000000000001,-3.69276080754626e-05,2.34558551748962,-2.34554858988154
0.620000000000001,-3.76304523164117e-05,2.38405427012003,-2.38401663966771
0.630000000000001,-3.83332965573608e-05,2.42252302275044,-2.42248468945388
0.640000000000001,-3.90361407983099e-05,2.46099177538085,-2.46095273924005
0.650000000000001,-3.9738985039259e-05,2.49946052801126,-2.49942078902622
0.660000000000001,-4.0441829280208e-05,2.53792928064167,-2.53788883881239
0.670000000000001,-4.11446735211571e-05,2.57639803327208,-2.57635688859856
0.680000000000001,-4.18475177621062e-05,2.61486678590249,-2.61482493838473
0.690000000000001,-4.25503620030553e-05,2.6533355385329,-2.6532929881709
0.700000000000001,0.0441585232014915,2.7195404492778,-2.7636989724793
0.710000000000001,0.134581237554246,2.77948341113229,-2.91406464868654
0.720000000000001,0.225003951907001,2.83942637298678,-3.06443032489378
0.730000000000001,0.315426666259755,2.89936933484127,-3.21479600110103
0.740000000000001,0.40584938061251,2.95931229669576,-3.36516167730827
0.750000000000001,0.496272094965265,3.01925525855024,-3.51552735351551
0.760000000000001,0.580845713374488,3.08794023056553,-3.66878594394002
0.770000000000001,0.663490374610847,3.15950820593171,-3.82299858054256
0.780000000000001,0.746135035847206,3.2310761812979,-3.97721121714511
0.790000000000001,0.828779697083564,3.30264415666408,-4.13142385374765
0.800000000000001,0.911424358319923,3.37421213203027,-4.28563649035019
0.810000000000001,0.986050469714018,3.44959087326091,-4.43564134297493
0.820000000000002,1.05814440747372,3.52617301423821,-4.58431742171193
0.830000000000002,1.13023834523341,3.60275515521552,-4.73299350044894
0.840000000000002,1.20233228299311,3.67933729619283,-4.88166957918594
0.850000000000002,1.27442622075281,3.75591943717014,-5.03034565792295
0.860000000000002,1.33266436179311,3.83310849901476,-5.16577286080787
0.870000000000002,1.38761003628622,3.91044177967934,-5.29805181596556
0.880000000000002,1.44255571077934,3.98777506034391,-5.43033077112325
0.890000000000002,1.49750138527245,4.06510834100849,-5.56260972628095
0.900000000000002,1.55244705976557,4.14244162167307,-5.69488868143864
0.910000000000002,1.60030749996756,4.2154698465411,-5.81577734650866
0.920000000000002,1.64141482623584,4.28439481510304,-5.92580964133888
0.930000000000002,1.68252215250412,4.35331978366499,-6.03584193616911
0.940000000000002,1.7236294787724,4.42224475222693,-6.14587423099933
0.950000000000002,1.76473680504067,4.49116972078888,-6.25590652582955
0.960000000000002,1.80584413130895,4.56009468935082,-6.36593882065977
0.970000000000002,1.82896032229547,4.61768947366985,-6.44664979596533
0.980000000000002,1.84421831626239,4.67033544188279,-6.51455375814517
0.990000000000002,1.8594763102293,4.72298141009572,-6.58245772032502
1,1.87473430419621,4.77562737830865,-6.65036168250487
1.01,1.88999229816313,4.82827334652159,-6.71826564468472
1.02,1.90525029213004,4.88091931473452,-6.78616960686456
1.03,1.92050828609695,4.93356528294746,-6.85407356904441
1.04,1.89891162628938,4.97423737362435,-6.87314899991373
1.05,1.86567665476356,5.01112823981618,-6.87680489457974
1.06,1.83244168323773,5.04801910600801,-6.88046078924575
1.07,1.79920671171191,5.08490997219985,-6.88411668391176
1.08,1.76597174018609,5.12180083839168,-6.88777257857778
1.09,1.73273676866027,5.15869170458351,-6.89142847324379
1.1,1.69950179713445,5.19558257077535,-6.8950843679098
1.11,1.66626682560862,5.23247343696718,-6.89874026257581
1.12,1.62103252642304,5.27098180291393,-6.89201432933698
1.13,1.53010847960996,5.31564911023518,-6.84575758984515
1.14,1.43918443279689,5.36031641755642,-6.79950085035332
1.15,1.34826038598381,5.40498372487767,-6.75324411086149
1.16,1.25733633917073,5.44965103219892,-6.70698737136966
1.17,1.16641229235766,5.49431833952016,-6.66073063187782
1.18,1.07548824554458,5.53898564684141,-6.61447389238599
1.19,0.984564198731504,5.58365295416266,-6.56821715289416
1.2,0.893640151918428,5.62832026148391,-6.52196041340233
1.21,0.802716105105352,5.67298756880515,-6.4757036739105
1.22,0.711792058292275,5.7176548761264,-6.42944693441867
1.23,0.620868011479199,5.76232218344765,-6.38319019492684
1.24,0.529943964666123,5.80698949076889,-6.33693345543501
1.25,0.426630587283401,5.88918399347842,-6.31581458076182
1.26,0.315057656187591,5.99639662644678,-6.31145428263437
1.27,0.203484725091781,6.10360925941514,-6.30709398450692
1.28,0.0919117939959708,6.21082189238351,-6.30273368637948
1.29,-0.0196611370998393,6.31803452535187,-6.29837338825203
1.3,-0.131234068195649,6.42524715832023,-6.29401309012458
1.31,-0.242806999291459,6.53245979128859,-6.28965279199713
1.32,-0.354379930387269,6.63967242425695,-6.28529249386968
1.33,-0.46595286148308,6.74688505722531,-6.28093219574224
1.34,-0.546345165136905,6.89673845329078,-6.35039328815388
1.35,-0.623197822489051,7.04928847390141,-6.42609065141236
1.36,-0.700050479841197,7.20183849451204,-6.50178801467084
1.37,-0.776903137193343,7.35438851512266,-6.57748537792932
1.38,-0.853755794545489,7.50693853573329,-6.6531827411878
1.39,-0.930608451897636,7.65948855634392,-6.72888010444628
1.4,-1.00746110924978,7.81203857695455,-6.80457746770476
1.41,-1.08431376660193,7.96458859756517,-6.88027483096325
1.42,-1.16116642395407,8.1171386181758,-6.95597219422173
1.43,-1.22445219083121,8.25980726441638,-7.03535507358518
1.44,-1.28434623508959,8.40000556706446,-7.11565933197487
1.45,-1.34424027934797,8.54020386971254,-7.19596359036457
1.46,-1.40413432360636,8.68040217236062,-7.27626784875426
1.47,-1.46402836786474,8.8206004750087,-7.35657210714395
1.48,-1.52392241212313,8.96079877765678,-7.43687636553365
1.49,-1.58381645638151,9.10099708030486,-7.51718062392334
1.5,-1.64403174236277,9.23611793545519,-7.59208619309241
1.51,-1.70583793973346,9.34609333633098,-7.6402553965975
1.52,-1.76764413710416,9.45606873720677,-7.68842460010259
1.53,-1.82945033447486,9.56604413808256,-7.73659380360768
1.54,-1.89125653184556,9.67601953895835,-7.78476300711277
1.55,-1.95306272921626,9.78599493983413,-7.83293221061786
1.56,-2.01486892658695,9.89597034070992,-7.88110141412295
1.57,-2.07667512395765,10.0059457415857,-7.92927061762804
1.58,-2.1404520908229,10.1131163166219,-7.97266422579894
1.59,-2.22689290687546,10.1880313945024,-7.96113848762688
1.6,-2.31333372292801,10.2629464723828,-7.94961274945482
1.61,-2.39977453898057,10.3378615502633,-7.93808701128275
1.62,-2.48621535503312,10.4127766281438,-7.92656127311069
1.63,-2.57265617108567,10.4876917060243,-7.91503553493863
1.64,-2.65909698713823,10.5626067839048,-7.90350979676656
1.65,-2.74553780319078,10.6375218617853,-7.8919840585945
1.66,-2.83197861924334,10.7124369396658,-7.88045832042244
1.67,-2.9288355758879,10.7769619589172,-7.84812638302927
1.68,-3.04782683129046,10.8194081035818,-7.77158127229132
1.69,-3.16681808669301,10.8618542482464,-7.69503616155338
1.7,-3.28580934209556,10.904300392911,-7.61849105081543
1.71,-3.40480059749812,10.9467465375756,-7.54194594007748
1.72,-3.52379185290067,10.9891926822402,-7.46540082933954
1.73,-3.64278310830323,11.0316388269048,-7.38885571860159
1.74,-3.76177436370578,11.0740849715694,-7.31231060786364
1.75,-3.88076561910833,11.116531116234,-7.2357654971257
1.76,-4.01170539520319,11.1427749401943,-7.13106954499117
1.77,-4.15887712393661,11.14700806433,-6.98813094039343
1.78,-4.30604885267003,11.1512411884657,-6.84519233579569
1.79,-4.45322058140345,11.1554743126014,-6.70225373119795
1.8,-4.60039231013688,11.159707436737,-6.55931512660021
1.81,-4.7475640388703,11.1639405608727,-6.41637652200247
1.82,-4.89473576760372,11.1681736850084,-6.27343791740472
1.83,-5.04190749633714,11.1724068091441,-6.13049931280698
1.84,-5.18907922507057,11.1766399332798,-5.98756070820924
1.85,-5.33582397688686,11.17381587397,-5.83799189708315
1.86,-5.48242181191446,11.1685635364854,-5.68614172457096
1.87,-5.62901964694207,11.1633111990008,-5.53429155205877
1.88,-5.77561748196967,11.1580588615162,-5.38244137954658
1.89,-5.92221531699728,11.1528065240317,-5.2305912070344
1.9,-6.06881315202489,11.1475541865471,-5.07874103452221
1.91,-6.21541098705249,11.1423018490625,-4.92689086201002
1.92,-6.3620088220801,11.1370495115779,-4.77504068949783
1.93,-6.5086066571077,11.1317971740933,-4.62319051698564
1.94,-6.65488230084967,11.1536095607805,-4.49872725993078
1.95,-6.80106494092156,11.1832344451666,-4.38216950424503
1.96,-6.94724758099345,11.2128593295527,-4.26561174855927
1.97,-7.09343022106534,11.2424842139389,-4.14905399287352
1.98,-7.23961286113723,11.272109098325,-4.03249623718777
1.99,-7.38579550120912,11.3017339827112,-3.91593848150201
2,-7.53197814128101,11.3313588670973,-3.79938072581626
2.01,-7.67912655372407,11.3787447296859,-3.69961817596181
2.02,-7.8281166716191,11.4600003646606,-3.63188369304144
2.03,-7.97710678951414,11.5412559996352,-3.56414921012107
2.04,-8.12609690740918,11.6225116346099,-3.4964147272007
2.05,-8.27508702530422,11.7037672695846,-3.42868024428033
2.06,-8.42407714319925,11.7850229045592,-3.36094576135996
2.07,-8.57306726109429,11.8662785395339,-3.29321127843959
2.08,-8.72205737898933,11.9475341745085,-3.22547679551922
2.09,-8.81634314594743,12.0972903946994,-3.28094724875192
2.1,-8.87637770008239,12.2904788547085,-3.41410115462611
2.11,-8.93641225421735,12.4836673147177,-3.54725506050029
2.12,-8.99644680835231,12.6768557747268,-3.68040896637448
2.13,-9.05648136248727,12.870044234736,-3.81356287224867
2.14,-9.11651591662223,13.0632326947451,-3.94671677812286
2.15,-9.1765504707572,13.2564211547543,-4.07987068399705
2.16,-9.23658502489216,13.4496096147634,-4.21302458987124
2.17,-9.29661957902712,13.6427980747726,-4.34617849574543
2.18,-9.36176015476441,13.8255579250369,-4.46379777027253
2.19,-9.43192570414207,13.9980546990446,-4.56612899490252
2.20000000000001,-9.50209125351973,14.1705514730522,-4.66846021953251
2.21,-9.5722568028974,14.3430482470599,-4.7707914441625
2.22000000000001,-9.64242235227506,14.5155450210675,-4.8731226687925
2.23,-9.71258790165273,14.6880417950752,-4.97545389342249
2.24000000000001,-9.78275345103039,14.8605385690828,-5.07778511805248
2.25,-9.85291900040805,15.0330353430905,-5.18011634268247
2.26000000000001,-9.92591727145663,15.1779133384076,-5.25199606695105
2.27,-10.0010700068746,15.3017855020447,-5.30071549517014
2.28000000000001,-10.0762227422926,15.4256576656818,-5.34943492338923
2.29,-10.1513754777106,15.5495298293189,-5.39815435160831
2.30000000000001,-10.2265282131286,15.673401992956,-5.4468737798274
2.31,-10.3016809485466,15.7972741565931,-5.49559320804649
2.32000000000001,-10.3768336839646,15.9211463202302,-5.54431263626558
2.33000000000001,-10.4519864193826,16.0450184838673,-5.59303206448467
2.34000000000001,-10.5271391548006,16.1688906475044,-5.64175149270376
2.35000000000001,-10.6042870180952,16.2786430596638,-5.67435604156863
2.36000000000001,-10.6886764566455,16.3371460034972,-5.64846954685169
2.37000000000001,-10.7730658951958,16.3956489473305,-5.62258305213475
2.38000000000001,-10.857455333746,16.4541518911638,-5.59669655741781
2.39000000000001,-10.9418447722963,16.5126548349972,-5.57081006270087
2.40000000000001,-11.0262342108466,16.5711577788305,-5.54492356798393
2.41000000000001,-11.1106236493969,16.6296607226639,-5.51903707326699
2.42000000000001,-11.1950130879471,16.6881636664972,-5.49315057855005
2.43000000000001,-11.2794025264974,16.7466666103305,-5.46726408383312
2.44000000000001,-11.3637919650477,16.8051695541639,-5.44137758911618
2.45000000000001,-11.4481814035979,16.8636724979972,-5.41549109439924
2.46000000000001,-11.5570331860959,16.8915935029569,-5.334560316861
2.47000000000001,-11.6791731554296,16.9029020966767,-5.22372894124706
2.48000000000001,-11.8013131247633,16.9142106903965,-5.11289756563313
2.49000000000001,-11.923453094097,16.9255192841162,-5.0020661900192
2.50000000000001,-12.0455930634307,16.936827877836,-4.89123481440526
2.51000000000001,-12.1677330327644,16.9481364715558,-4.78040343879133
2.52000000000001,-12.2898730020981,16.9594450652755,-4.66957206317739
2.53000000000001,-12.4120129714318,16.9707536589953,-4.55874068756346
2.54000000000001,-12.5341529407655,16.9820622527151,-4.44790931194953
2.55000000000001,-12.6562929100992,16.9933708464348,-4.33707793633559
2.56000000000001,-12.7784328794329,17.0046794401546,-4.22624656072166
2.57000000000001,-12.9017120632005,17.0170923042866,-4.1153802410861
2.58000000000001,-13.0416522580635,17.0456551231978,-4.00400286513431
2.59000000000001,-13.1815924529264,17.0742179421089,-3.89262548918251
2.60000000000001,-13.3215326477894,17.1027807610201,-3.78124811323072
2.61000000000001,-13.4614728426523,17.1313435799312,-3.66987073727893
2.62000000000001,-13.6014130375153,17.1599063988424,-3.55849336132713
2.63000000000001,-13.7413532323782,17.1884692177536,-3.44711598537534
2.64000000000001,-13.8812934272412,17.2170320366647,-3.33573860942354
2.65000000000001,-14.0213117449434,17.2519503399801,-3.23063859503673
2.66000000000001,-14.1615478596522,17.3045869634529,-3.14303910380072
2.67000000000001,-14.3017839743609,17.3572235869256,-3.05543961256471
2.68000000000001,-14.4420200890697,17.4098602103984,-2.9678401213287
2.69000000000001,-14.5822562037785,17.4624968338712,-2.8802406300927
2.70000000000001,-14.7224923184872,17.5151334573439,-2.79264113885669
2.71000000000001,-14.862728433196,17.5677700808167,-2.70504164762068
2.72000000000001,-15.0135106312224,17.6399552175218,-2.62644458629941
2.73000000000001,-15.1694403222967,17.7216818904475,-2.5522415681508
2.74000000000001,-15.3253700133711,17.8034085633733,-2.4780385500022
2.75000000000001,-15.4812997044454,17.885135236299,-2.40383553185359
2.76000000000001,-15.6372293955197,17.9668619092247,-2.32963251370498
2.77000000000001,-15.793159086594,18.0485885821504,-2.25542949555638
2.78000000000001,-15.9490887776683,18.1303152550761,-2.18122647740777
2.79000000000001,-16.1050184687426,18.2120419280018,-2.10702345925916
2.80000000000001,-16.2684031715253,18.302828808128,-2.03442563660262
2.81000000000001,-16.4433507496109,18.4076682545243,-1.96431750491335
2.82000000000001,-16.6182983276964,18.5125077009205,-1.89420937322408
2.83000000000001,-16.7932459057819,18.6173471473168,-1.82410124153482
2.84000000000001,-16.9681934838675,18.722186593713,-1.75399310984555
2.85000000000001,-17.143141061953,18.8270260401093,-1.68388497815628
2.86000000000001,-17.3180886400385,18.9318654865056,-1.61377684646701
2.87000000000001,-17.4930362181241,19.0367049329018,-1.54366871477774
2.88000000000001,-17.6679837962096,19.1415443792981,-1.47356058308847
2.89000000000001,-17.8429313742951,19.2463838256943,-1.4034524513992
2.90000000000001,-18.0178789523807,19.3512232720906,-1.33334431970994
2.91000000000001,-18.1924299369504,19.4554031971373,-1.26297326018689
2.92000000000001,-18.3178033255688,19.4778024748465,-1.15999914927773
2.93000000000001,-18.4431767141872,19.5002017525557,-1.05702503836857
2.94000000000001,-18.5685501028055,19.5226010302649,-0.954050927459412
2.95000000000001,-18.6939234914239,19.5450003079741,-0.851076816550253
2.96000000000001,-18.8192968800423,19.5673995856834,-0.748102705641095
2.97000000000001,-18.9446702686606,19.5897988633926,-0.645128594731937
2.98000000000001,-19.070043657279,19.6121981411018,-0.542154483822779
2.99000000000001,-19.1954170458974,19.634597418811,-0.439180372913621
3.00000000000001,-19.3207904345157,19.6569966965202,-0.336206262004463
3.01000000000001,-19.4461638231341,19.6793959742294,-0.233232151095305
3.02000000000001,-19.5715372117524,19.7017952519386,-0.130258040186147
3.03000000000001,-19.6969106003708,19.7241945296478,-0.0272839292769888
3.04000000000001,-19.8222839889892,19.746593807357,0.0756901816321693
3.05000000000001,-19.9476573776075,19.7689930850663,0.178664292541327
3.06000000000001,-20.0730307662259,19.7913923627755,0.281638403450485
3.07000000000001,-20.1483743700804,19.705218564714,0.44315580536634
3.08000000000001,-20.2123388749224,19.5928566902886,0.619482184633782
3.09000000000001,-20.2763033797644,19.4804948158632,0.795808563901225
