"Time [ms]","Current(PhaseA) [A]","Current(PhaseB) [A]","Current(PhaseC) [A]"
0,0,0,0
0.05,2.63058033010337e-06,0.331988564350136,-0.331991194930466
0.1,-2.44550254440828e-06,0.66611164161208,-0.666109196109536
0.15,-7.52158541891993e-06,1.00023471887402,-1.00022719728861
0.2,-1.25976682934316e-05,1.33435779613597,-1.33434519846768
0.25,-1.76737511679432e-05,1.66848087339791,-1.66846319964675
0.3,-2.27498340424549e-05,2.00260395065986,-2.00258120082582
0.35,-2.78259169169665e-05,2.3367270279218,-2.33669920200489
0.4,-3.29019997914782e-05,2.67085010518374,-2.67081720318396
0.45,-3.79780826659898e-05,3.00497318244569,-3.00493520436303
0.5,-4.30541655405015e-05,3.33909625970763,-3.3390532055421
0.55,0.246851684653477,3.86588624383742,-4.1127379284909
0.6,0.661491766786502,4.57334536006978,-5.23483712685628
0.65,1.03649504276393,5.27907908149187,-6.31557412425581
0.7,1.31595655968825,5.91865272271161,-7.23460928239985
0.75,1.43681199475517,6.48029977474809,-7.91711176950327
0.8,1.28635732300264,6.98847955084751,-8.27483687385016
0.85,0.87998199127039,7.49244681925827,-8.37242881052867
0.9,0.177221933453823,8.08160470976343,-8.25882664321725
0.95,-0.555722003106686,8.85721312360736,-8.30149112050067
1,-1.32448547530382,9.89758290213216,-8.57309742682834
1.05,-1.83252917755639,11.1914358816418,-9.35890670408544
1.1,-2.26917441537413,12.4367114378038,-10.1675370224297
1.15,-2.69600718901114,13.5715194766487,-10.8755122876376
1.2,-3.18616758480081,14.5610550221652,-11.3748874373644
1.25,-3.83144418569142,15.3479792680851,-11.5165350823937
1.3,-4.65564694833141,15.9717264663348,-11.3160795180034
1.35,-5.64386677375233,16.513009174908,-10.8691424011557
1.4,-6.80779906118925,17.009421433838,-10.2016223726488
1.45,-8.14058382555635,17.7158041230686,-9.57522029751223
1.5,-9.48066510777279,18.5224803677088,-9.04181525993604
1.55,-10.8047017192059,19.4315090139402,-8.62680729473427
1.6,-11.8515962212287,20.8190023746351,-8.96740615340637
1.65,-12.8045439634091,22.333344534985,-9.52880057157588
1.7,-13.7320497499098,23.6488417748591,-9.91679202494927
1.75,-14.6740995859687,24.6436127795401,-9.96951319357135
1.8,-15.6588216667232,25.4229261975857,-9.76410453086245
1.85,-16.870228650545,25.8285053156426,-8.95827666509758
1.9,-18.2673465281801,26.2413969072965,-7.97405037911643
1.95,-19.9008237252139,26.6635952835285,-6.76277155831455
2,-21.4955577651091,27.2182759790084,-5.72271821389927
2.05,-23.0158202271122,27.8661764572495,-4.85035623013733
2.1,-24.4887568501246,28.5535789382152,-4.06482208809062
2.15,-25.9145056133883,29.2261057320836,-3.31160011869531
2.2,-27.1624487845138,29.7256987272938,-2.56324994278004
2.25,-28.402659490054,30.2092196581832,-1.80656016812927
2.3,-29.2478700786096,29.8717259700164,-0.623855891406828
2.35,-30.0930806671653,29.5342322818497,0.558848385315615
2.4,-31.0102971264655,28.7129908650245,2.297306261441
2.45,-32.0201295653334,27.6537095318346,4.36642003349881
2.5,-33.1731780984492,26.4191683189038,6.75400977954544
2.55,-34.3533636652727,25.5478656925335,8.80549797273916
2.6,-35.4493223599696,24.9807646850139,10.4685576749557
2.65,-36.9099279184878,25.0412503468757,11.8686775716121
2.7,-38.1824024884138,25.0504308571063,13.1319716313075
2.75,-39.1049006668975,24.8233660174625,14.281534649435
2.8,-39.6946924561581,24.2929803586599,15.4017120974983
2.85,-40.085958613779,23.5813032057122,16.5046554080668
2.9,-40.1849445626598,22.2256154896261,17.9593290730337
2.95,-40.1982497533854,20.5294798171078,19.6687699362775
3,-40.1184731080084,18.3178199376968,21.8006531703116
3.05,-40.0802041179841,15.7535366474022,24.3266674705819
3.1,-40.3451362089323,13.7539275405877,26.5912086683445
3.15,-40.7131081781016,12.2637920368724,28.4493161412292
3.2,-41.0114206709213,11.0651606832077,29.9462599877136
3.25,-41.1617511269762,10.0470048250104,31.1147463019658
3.3,-41.0689819805271,9.07293269334853,31.9960492871786
3.35,-40.6062710683373,7.99053504564175,32.6157360226956
3.4,-39.6477297003764,6.61029271927802,33.0374369810984
3.45,-38.5521367673813,5.08501841538605,33.4671183519953
3.5,-36.8983733959967,2.92298794758716,33.9753854484096
3.55,-34.9433070373138,0.171521828697265,34.7717852086165
3.6,-32.8969968734216,-2.88817797893813,35.7851748523598
3.65,-31.1552500267122,-5.69064652516481,36.845896551877
3.7,-30.6063117369411,-7.63220336452966,38.2385151014707
3.75,-30.2322844204279,-9.11420962537006,39.346494045798
3.8,-29.7835453115758,-10.3205414997093,40.1040868112851
3.85,-29.1781948165977,-11.3024050157554,40.4805998323531
3.9,-28.2828255392326,-12.1595721937217,40.4423977329542
3.95,-27.1443065291933,-13.0060284980651,40.1503350272584
4,-25.6189814296773,-13.988722778796,39.6077042084734
4.05,-23.6040844605631,-15.3488125928271,38.9528970533901
4.1,-20.9508539810929,-17.2958130623031,38.246667043396
4.15,-17.858279628903,-19.7904559860748,37.6487356149779
4.2,-15.0596752506675,-22.1330988444594,37.1927740951271
4.25,-12.9461857973765,-23.9030902850618,36.8492760824383
4.3,-11.3808898293701,-25.1689713887067,36.5498612180768
4.35,-10.1864349594989,-25.9861735856157,36.1726085451145
4.4,-9.15973897652824,-26.3774597941363,35.5371987706645
4.45,-8.1292770923404,-26.4855910772598,34.6148681696002
4.5,-6.8218991405439,-26.3179253057709,33.1398244463148
4.55,-5.23273309718518,-26.1639987891422,31.3967318863274
4.6,-3.16422950536102,-26.128810552915,29.293040058276
4.65,-0.244726448715338,-26.6250402396842,26.8697666883996
4.7,2.69714236010594,-27.5448118540151,24.8476694939091
4.75,4.76502139009781,-28.6651713666833,23.9001499765855
4.8,6.06681754274574,-29.5178599277869,23.4510423850412
4.85,7.04651364524622,-30.0721585226915,23.0256448774453
4.9,7.73334275116466,-30.1926106656567,22.4592679144921
4.95,8.2246071774008,-29.8988591260495,21.6742519486487
5,8.66835751802055,-29.3228397802849,20.6544822622643
5.05,9.10986536492689,-28.4687683555505,19.3589029906236
5.1,9.76825676975394,-27.3781339035607,17.6098771338067
5.15,10.8169441116104,-26.2946849346536,15.4777408230432
5.2,12.4241795751865,-25.4143992175434,12.9902196423568
5.25,14.2025146574802,-24.9698512459829,10.7673365885026
5.3,15.6366900551736,-24.8763928283439,9.23970277317021
5.35,16.7032872131869,-24.8943230312789,8.19103581809206
5.4,17.3546225954496,-24.7338753227789,7.37925272732936
5.44999999999999,17.6247792432936,-24.2434848042823,6.6187055609887
5.49999999999999,17.6254212330779,-23.4498399915683,5.82441875849046
5.54999999999999,17.33511154375,-22.1119819522365,4.77687040848647
5.59999999999999,17.0083043333457,-20.6130353286408,3.60473099529512
5.64999999999999,16.7004202753115,-18.7722608413159,2.07184056600438
5.69999999999999,16.7208111583959,-16.8481344826908,0.127323324294955
5.74999999999999,17.5249878212269,-15.6495327948893,-1.87545502633755
5.79999999999999,18.7581513228837,-15.3422203698389,-3.41593095304483
5.84999999999999,19.7809033501723,-15.2603332992064,-4.52057005096591
5.89999999999999,20.4657651208407,-15.1438134659353,-5.3219516549054
5.94999999999999,20.7100092364718,-14.8239893223505,-5.88601991412125
5.99999999999999,20.5812140834475,-14.2425347208492,-6.33867936259822
6.04999999999999,20.153703325589,-13.4133392279281,-6.74036409766084
6.09999999999999,19.3917858526183,-12.161618062796,-7.23016778982224
6.14999999999999,18.55849169895,-10.5855948647038,-7.97289683424616
6.19999999999999,17.9627059424521,-8.78594325970185,-9.17676268275025
6.24999999999999,17.9040243321742,-7.1426782799326,-10.7613460522416
6.29999999999999,18.2416127491655,-6.00289026124313,-12.2387224879224
6.34999999999999,18.6398441313068,-5.2208237287612,-13.4190204025456
6.39999999999999,18.8784825062777,-4.63035926177818,-14.2481232444995
6.44999999999999,18.9019998584067,-4.08843881982173,-14.813561038585
6.49999999999999,18.3761159981066,-3.39059204394587,-14.9855239541606
6.54999999999999,17.7486840464094,-2.66392476085263,-15.0847592855567
6.59999999999999,16.52258204006,-1.57215590342998,-14.95042613663
6.64999999999999,15.062137354745,-0.238735456369859,-14.8234018983751
6.69999999999999,13.6268415680393,1.41250587824016,-15.0393474462795
6.74999999999999,12.6051132253996,3.0580941393721,-15.6632073647717
6.79999999999999,12.4070261838653,4.37407058385723,-16.7810967677225
6.84999999999999,12.6561961987841,5.44138704375095,-18.0975832425351
6.89999999999999,12.8693695411771,6.35566190009151,-19.2250314412686
6.94999999999999,12.9244681014877,7.15076903643256,-20.0752371379202
6.99999999999998,12.6850778824698,7.82072740031179,-20.5058052827816
7.04999999999998,12.0889858041868,8.49371122886215,-20.5826970330489
7.09999999999998,11.1431231222352,9.2450131088569,-20.3881362310921
7.14999999999998,9.86279914465367,10.1977341370843,-20.0605332817379
7.19999999999998,8.31450618557949,11.4543755246962,-19.7688817102756
7.24999999999998,6.80691061773363,13.0158402202266,-19.8227508379603
7.29999999999998,5.62710398748826,14.5125049251395,-20.1396089126278
7.34999999999998,4.79436331950409,15.8722541347633,-20.6666174542674
7.39999999999998,4.17344490161945,17.0213007560672,-21.1947456576867
7.44999999999998,3.48267200354332,17.9072728961625,-21.3899448997058
7.49999999999998,2.66332914331365,18.5488010642864,-21.2121302076
7.54999999999998,1.79492572314818,19.1617998247224,-20.9567255478705
7.59999999999998,0.484977263558835,19.5180339159666,-20.0030111795255
7.64999999999998,-1.12982756922028,19.8906373395158,-18.7608097702955
7.69999999999998,-3.04217493913547,20.4733562776123,-17.4311813384768
7.74999999999998,-4.90727938732197,21.291942964229,-16.3846635769071
7.79999999999998,-6.40207569704134,22.159921197699,-15.7578455006577
7.84999999999998,-7.47263672689629,23.2776201735615,-15.8049834466652
7.89999999999998,-8.43120816972376,24.4988467963196,-16.0676386265959
7.94999999999998,-9.3584922760656,25.630999097652,-16.2725068215864
7.99999999999998,-10.2339057433301,26.3519048119317,-16.1179990686016
8.04999999999998,-11.1034355703103,26.7633439566775,-15.6599083863671
8.09999999999998,-12.0098028858867,26.8754589837867,-14.8656560979001
8.14999999999998,-13.111741757081,26.7041622291391,-13.5924204720581
8.19999999999998,-14.6005469257136,26.49496053306,-11.8944136073464
8.24999999999998,-16.3154001023744,26.4139299953969,-10.0985298930224
8.29999999999998,-18.0204478345538,26.5779821633178,-8.55753432876397
8.34999999999998,-19.5400587761087,26.9817559215925,-7.44169714548383
8.39999999999998,-20.9278032817366,27.5345785540916,-6.60677527235491
8.44999999999998,-22.1329925591792,28.0419538320078,-5.90896127282858
8.49999999999998,-23.1628692118884,28.3619237555843,-5.19905454369589
8.54999999999998,-23.7241205746205,27.8688882820082,-4.14476770738776
8.59999999999997,-24.2853719373527,27.3758528084322,-3.09048087107962
8.64999999999998,-24.8280104860795,26.6705704537886,-1.84255996770918
8.69999999999997,-25.3496719814913,25.4196204664489,-0.0699484849575545
8.74999999999998,-26.1234044769583,23.8723035618864,2.25110091507187
8.79999999999997,-27.0757906689988,22.4640262989726,4.61176437002616
8.84999999999997,-28.0924429237237,21.6470253973013,6.44541752642234
8.89999999999997,-29.5166348875456,21.6369370445334,7.8796978430122
8.94999999999997,-30.7861795640279,21.6824104210076,9.1037691430202
8.99999999999997,-31.7561009930335,21.5794695541252,10.1766314389083
9.04999999999997,-32.3239713584854,21.2023216873093,11.1216496711761
9.09999999999997,-32.6175058842439,20.6155465677471,12.0019593164968
9.14999999999997,-32.4742001813395,19.5107252010714,12.963474980268
9.19999999999997,-32.2106726387667,17.9981320640578,14.2125405747089
9.24999999999997,-31.9092012765833,16.0737265938733,15.83547468271
9.29999999999997,-31.7355447893552,13.7941867201612,17.9413580691941
9.34999999999997,-31.8558521848946,11.7372298137224,20.1186223711723
9.39999999999997,-32.1966190952541,10.2228847197993,21.9737343754548
9.44999999999997,-32.5493059695695,9.07268957588067,23.4766163936888
9.49999999999997,-32.8089334076253,8.18464222825137,24.624291179374
9.54999999999997,-32.8423938952127,7.40625911702231,25.4361347781904
9.59999999999997,-32.4065690328619,6.51317884448773,25.8933901883741
9.64999999999997,-31.6796101395731,5.4486241330897,26.2309860064834
9.69999999999997,-30.6174341857497,4.16130553033002,26.4561286554196
9.74999999999997,-29.060216658098,2.32325091019749,26.7369657479006
9.79999999999997,-27.2919663561583,-0.0275982526853945,27.3195646088438
9.84999999999997,-25.5077454133928,-2.70888120430729,28.2166266177001
9.89999999999997,-24.1598646110152,-5.02652689129369,29.186391502309
9.94999999999997,-23.9354573887126,-6.62225670597272,30.5577140946854
9.99999999999997,-23.7999401013849,-7.89684709537374,31.6967871967586
10.05,-23.5867876200099,-8.95661813456208,32.543405754572
10.1,-23.1644177089684,-9.83532892543077,32.9997466343992
10.15,-22.5455525376897,-10.6150684287828,33.1606209664724
10.2,-21.6255011033508,-11.3575781881845,32.9830792915351
10.25,-20.2426011307097,-12.2788713376422,32.5214724683519
10.3,-18.3666402562726,-13.6206833610407,31.9873236173134
10.35,-15.9482927978277,-15.5251611474329,31.4734539452606
10.4,-13.3449707705804,-17.7821154231895,31.1270861937698
10.45,-11.2996566723509,-19.718143533376,31.017800205727
10.5,-9.7893105745273,-21.2584659120819,31.0477764866092
10.55,-8.69835641835511,-22.3905444242494,31.0889008426045
10.6,-7.81560298551872,-23.1456680417307,30.9612710272495
10.65,-6.94942179507642,-23.5526778386903,30.5020996337667
10.7,-5.98859472129109,-23.6939766537103,29.6825713750015
10.75,-4.60288563092205,-23.7254466196258,28.3283322505479
10.8,-3.1345549539546,-23.7355595183717,26.8701144723263
10.85,-0.739101282153302,-24.1091074442442,24.8482087263975
10.9,2.07893907952505,-24.8951713715078,22.8162322919828
10.95,4.35504321564902,-25.8618041409646,21.5067609253156
11,5.79679964312499,-27.0137696918113,21.2169700486863
11.05,6.87031275625666,-27.9729668388491,21.1026540825925
11.1,7.74052100975384,-28.6714292028006,20.9309081930468
11.15,8.3925219579192,-28.9426100509456,20.5500880930264
11.2,8.95725189432606,-28.8332927958665,19.8760409015404
11.25,9.51906080456573,-28.4893970826346,18.9703362780689
11.3,10.1860180881784,-27.8229643047046,17.6369462165261
11.35,11.168732694566,-27.0141372937367,15.8454045991706
11.4,12.7211653662778,-26.2837844342052,13.5626190679274
11.45,14.6266021502496,-25.8937746131668,11.2671724629173
11.5,16.3256554464825,-25.8598317253419,9.53417627885938
11.55,17.725324520345,-26.0652208085033,8.33989628815825
11.6,18.8012927045932,-26.2829094422751,7.48161673768193
11.65,19.4893684985471,-26.2312151462534,6.74184664770624
11.7,19.8696868650093,-25.8648381200483,5.995151255039
11.75,19.900189447939,-24.9889825943592,5.08879314642025
11.8,19.883961635929,-23.8729788992312,3.98901726330215
11.85,19.7975725380252,-22.3877931918791,2.59022065385395
11.9,19.9584531776554,-20.5747158782458,0.616262700590463
11.95,20.5277119006739,-18.8309649547886,-1.69674694588528
12,21.592579239358,-17.9608132806758,-3.63176595868233
12.05,22.9309155447396,-17.8366749260564,-5.09424061868322
12.1,24.0319748244416,-17.8261704068026,-6.20580441763905
12.15,24.7712853450963,-17.7104574504515,-7.06082789464488
12.2,25.0124896618583,-17.300140755567,-7.71234890629134
12.25,24.9794734375411,-16.6663113396284,-8.31316209791273
12.3,24.6097270345301,-15.6837709408246,-8.92595609370557
12.35,23.9912846831833,-14.3064994886694,-9.68478519451394
12.4,23.3096393514219,-12.4809747360498,-10.8286646153722
12.45,22.9284144787602,-10.3937223820922,-12.534692096668
12.5,23.0735352837811,-8.62928902080844,-14.4442462629726
12.55,23.4327706812179,-7.37001941135211,-16.0627512698658
12.6,23.8016318192546,-6.50726119890184,-17.2943706203527
12.65,24.0753899730849,-5.85739649884754,-18.2179934742374
12.7,23.9244037069647,-5.20093765272328,-18.7234660542415
12.75,23.4507696634977,-4.42126175896399,-19.0295079045338
12.7999999999999,22.5627028691748,-3.44838568744995,-19.1143171817248
12.8499999999999,21.4624369799534,-2.30373643571328,-19.1587005442401
12.8999999999999,19.9124478810527,-0.693414363175953,-19.2190335178768
12.9499999999999,18.3378344180522,1.32754937771773,-19.6653837957699
12.9999999999999,17.0787129176531,3.34034408042649,-20.4190569980796
13.0499999999999,16.6923007644716,4.86725407508464,-21.5595548395562
13.0999999999999,16.7956532650457,6.05552402081793,-22.8511772858636
13.1499999999999,16.8828881390561,7.05811155218327,-23.9409996912394
13.1999999999999,16.7962438086579,7.88710034725822,-24.6833441559161
13.2499999999999,16.5100526110658,8.62112035508339,-25.1311729661492
13.2999999999999,15.8898107833513,9.30289189325807,-25.1927026766093
13.3499999999999,14.8340521362038,10.076625078144,-24.9106772143479
13.3999999999999,13.3729807597484,11.1219170969715,-24.4948978567199
13.4499999999999,11.550844023396,12.5785209389807,-24.1293649623767
13.4999999999999,9.66136005919121,14.3282693627483,-23.9896294219395
13.5499999999999,8.07026263225371,16.0281893464363,-24.09845197869
13.5999999999999,6.92665125784406,17.4972778227938,-24.4239290806379
13.6499999999999,6.14363721718504,18.700664095755,-24.8443013129401
13.6999999999999,5.45834095220839,19.584367480507,-25.0427084327155
13.7499999999999,4.69419198391958,20.2472872126168,-24.9414791965364
13.7999999999999,3.62302002348377,20.5763000220273,-24.1993200455111
13.8499999999999,2.54802904578215,20.9045977276905,-23.4526267734727
13.8999999999999,0.927902858220548,21.1542229478725,-22.082125806093
13.9499999999999,-1.16232377422406,21.6210923605905,-20.4587685863664
13.9999999999999,-3.43320573369198,22.3947709455914,-18.9615652118994
14.0499999999999,-5.27686179110337,23.2496556810021,-17.9727938898987
14.0999999999999,-6.48178947694592,24.3513508895196,-17.8695614125737
14.1499999999999,-7.47821004262305,25.5267229415351,-18.0485128989121
14.1999999999999,-8.36034405284011,26.5030347692516,-18.1426907164115
14.2499999999999,-9.1656451340478,27.1410911196069,-17.9754459855591
14.2999999999999,-9.93407881850876,27.5054157042508,-17.5713368857421
14.3499999999999,-10.7055563819752,27.4366199574637,-16.7310635754886
14.3999999999999,-11.648347049707,27.1086109534318,-15.4602639037249
14.4499999999999,-12.8937396195138,26.6956564457731,-13.8019168262594
14.4999999999999,-14.5330939506046,26.3342060465142,-11.8011120959096
14.5499999999999,-16.3189015392051,26.2486338583236,-9.92973231911851
14.5999999999999,-17.9357338224704,26.4544040768614,-8.518670254391
14.6499999999999,-19.3652708892425,26.8809559184803,-7.51568502923786
14.6999999999999,-20.5935403759443,27.3664887512584,-6.77294837531418
14.7499999999999,-21.4771236926747,27.5464867405521,-6.06936304787741
14.7999999999999,-22.1163014664884,27.354145966765,-5.23784450027658
14.8499999999999,-22.4528609213036,26.6199267195853,-4.16706579828166
14.8999999999999,-22.7894203761188,25.8857074724055,-3.09628709628675
14.9499999999999,-23.0970803665968,24.5815893290896,-1.48450896249278
14.9999999999999,-23.6255562035823,22.9631612722618,0.662394931320499
15.0499999999999,-24.4300314711926,21.4079191494488,3.02211232174381
15.0999999999999,-25.36258857472,20.3329334943834,5.02965508033654
15.1499999999999,-26.7708164506776,20.2425459621272,6.5282704885504
15.1999999999999,-28.0448744143023,20.2897044493583,7.75516996494407
15.2499999999999,-29.0326912001525,20.2353554565266,8.79733574362588
15.2999999999999,-29.5488589466049,19.9010045739181,9.64785437268671
15.3499999999999,-29.720639027679,19.2723038156933,10.4483352119856
15.3999999999999,-29.5867084642191,18.3149982062066,11.2717102580125
15.4499999999999,-29.2295256643708,16.9898971248625,12.2396285395082
15.4999999999999,-28.767930065699,15.1578620985169,13.6100679671821
15.5499999999999,-28.4614284044154,12.9266059733924,15.5348224310231
15.5999999999999,-28.5313228855453,10.8721233919303,17.659199493615
15.6499999999999,-28.8772107364172,9.39915414053157,19.4780565958856
15.6999999999999,-29.2360747387697,8.29307548693216,20.9429992518375
15.7499999999999,-29.5022288118657,7.44945736423435,22.0527714476314
