"Time [ms]","Current(PhaseA) [A]","Current(PhaseB) [A]","Current(PhaseC) [A]"
0,0,0,0
0.1,2.85433158221951e-06,0.655196604255999,-0.655199458587582
0.2,-2.05143461224799e-06,1.31239521225085,-1.31239316081624
0.3,-6.95720080671548e-06,1.9695938202457,-1.96958686304489
0.4,-1.1862967001183e-05,2.62679242824054,-2.62678056527355
0.5,-1.67687331956505e-05,3.28399103623539,-3.2839742675022
0.6,0.936938688279103,4.37699155122167,-5.31393023950078
0.7,1.71185521344841,5.64483179285572,-7.35668700630413
0.8,1.83937061922754,6.66984773929524,-8.50921835852278
0.9,0.960112418655418,7.70611811782188,-8.6662305364773
1,-0.54212065828394,9.56313838440842,-9.02101772612449
1.1,-1.64320447644715,12.1490902635256,-10.5058857870785
1.2,-2.70669384701817,14.3093547575303,-11.6026609105122
1.3,-4.50939711444837,15.8839245763757,-11.3745274619273
1.4,-7.131793654848,17.1656224105508,-10.0338287557028
1.5,-9.77930093825172,18.661224377835,-8.88192343958336
1.6,-11.5310194092636,20.5118546926814,-8.98083528341785
1.7,-12.7636160755555,22.8269481494234,-10.0633320738679
1.8,-14.2265938975691,24.2420353918575,-10.0154414942884
1.9,-16.4338763090767,24.6863784223595,-8.25250211328266
2,-19.1466019016827,25.25828350392,-6.11168160223731
2.1,-21.5801432439341,26.3804912068859,-4.80034796295177
2.2,-24.0995474628477,27.8299854111823,-3.73043794833464
2.3,-26.0361351981941,27.8536713753543,-1.81753617716018
2.4,-27.9849303856603,26.9760654629605,1.00886492269989
2.5,-30.4955003945323,24.9579888790837,5.53751151544862
2.6,-33.2167073195329,23.8194164042718,9.39729091526114
2.7,-36.6774297592975,24.320853398786,12.3565763605115
2.8,-38.2688644430947,23.5844864756237,14.6843779674711
2.9,-38.2356423179167,21.271968473294,16.9636738446227
3,-37.6515116949799,17.2142131137983,20.4372985811815
3.1,-38.6146156000392,13.1592061444892,25.45540945555
3.2,-40.3868984531793,10.8416119946132,29.5452864585662
3.3,-40.9495475995194,9.06842192704561,31.8811256724738
3.4,-39.5288972376627,6.64943913722292,32.8794581004398
3.5,-36.5168534277634,2.86314800886599,33.6537054188973
3.6,-32.7546060114029,-2.86389001991208,35.6184960313151
3.7,-30.7572319342061,-7.43833786428428,38.1955697984903
3.8,-30.2365004598869,-9.99233332287001,40.228833782757
3.9,-29.3171802641057,-11.6180957462743,40.93527601038
4,-27.7260300027286,-13.1502879205385,40.8763179232671
4.1,-24.3066128814539,-16.0729683774816,40.3795812589356
4.2,-18.7573949485162,-20.7491395564244,39.5065345049406
4.3,-14.1999026615873,-24.0035841804324,38.2034868420197
4.4,-11.0806360626251,-25.5235774444818,36.6042135071068
4.5,-8.10082845171114,-25.7544109062572,33.8552393579684
4.6,-3.49793700813714,-25.8728009228759,29.3707379310131
4.7,4.02260180626721,-28.135254954736,24.1126531484688
4.8,7.92776894700519,-30.5325066543024,22.6047377072972
4.9,9.45261937601929,-31.1636728895423,21.7110535135231
5,9.93533970765919,-30.0598995502813,20.1245598426221
5.1,10.2288834080286,-27.5843543718541,17.3554709638254
5.2,11.2946731357334,-24.5713889450685,13.276715809335
5.3,13.1790923455352,-23.3130296844171,10.1339373388819
5.4,14.4419923009229,-23.0383892945221,8.59639699359922
5.5,14.594418002787,-21.5999598883575,7.00554188557045
5.6,14.0434976021341,-18.8423396291437,4.79884202700963
5.7,13.4129016054706,-15.0057328003148,1.59283119484423
5.8,15.794067355315,-13.9295427393789,-1.86452461593608
5.9,18.1675081471183,-13.9410431762346,-4.22646497088376
6,18.286595921011,-12.9172032376213,-5.36939268338968
6.1,16.7393474239847,-10.5988170270942,-6.14053039689049
6.2,15.2621794744183,-7.3840182401084,-7.8781612343099
6.3,16.252415447432,-5.10339163619338,-11.1490238112386
6.4,17.7271228295475,-4.04698651442246,-13.6801363151251
6.5,17.5709060055483,-2.99241740164341,-14.5784886039049
6.6,15.9297022326697,-1.29103491153731,-14.6386673211324
6.7,13.2569807418079,1.5738688276514,-14.8308495694593
6.8,12.3033862686079,4.4117127905901,-16.7150990591979
6.9,13.1192166230217,6.23382235081198,-19.3530389738337
7.00000000000001,13.2676955836911,7.55279085959605,-20.820486443287
7.10000000000001,12.3940672028233,8.74303599697643,-21.1371031997998
7.20000000000001,10.4014964118002,10.6872125071795,-21.0887089189796
7.30000000000001,7.75667064849402,13.7150506678937,-21.4717213163877
7.40000000000001,6.03124830338177,16.3278485287715,-22.3590968321533
7.50000000000001,4.33770785046371,18.0499931457599,-22.3877009962237
7.60000000000001,1.31861026814559,19.194011013338,-20.5126212814836
7.70000000000001,-3.35321482395201,20.6672318314708,-17.3140170075187
7.80000000000001,-7.65876122850303,22.9130567864022,-15.2542955578991
7.90000000000001,-9.68992751703843,25.3725685634497,-15.6826410464113
8.00000000000001,-10.7683778827736,26.7437404280609,-15.9753625452873
8.10000000000001,-11.6921176530461,26.6914000701734,-14.9992824171273
8.20000000000001,-13.3373176079829,25.5291300284776,-12.1918124204947
8.3,-15.7291287286903,24.7615020621467,-9.03237333345649
8.4,-18.0185475197421,25.3695264537073,-7.35097893396525
8.5,-19.9159702001829,25.9766652975037,-6.06069509732083
8.6,-20.9907278460723,25.3512538389793,-4.3605259929071
8.7,-21.982223250029,23.3332436656587,-1.35102041562969
8.8,-24.0851948507973,20.7824713938198,3.30272345697752
8.9,-27.1763083417623,20.3779523944782,6.79835594728406
9,-29.9595682057477,20.6234619750356,9.33610623071211
9.1,-30.6226652339288,19.5038712293683,11.1187940045606
9.2,-29.7512992531997,16.7214972217287,13.029802031471
9.3,-29.0203336685498,12.6025518053968,16.417781863153
9.4,-30.6406187003359,9.63868435565854,21.0019343446773
9.5,-32.0641783109285,7.91498984118459,24.1491884697439
9.6,-32.0276274604279,6.41163447188216,25.6159929885457
9.7,-30.2121462898395,4.05526759262959,26.1568786972099
9.8,-26.889768522929,-0.113917446097016,27.0036859690261
9.9,-24.0251724443453,-4.96702686028738,28.9921993046327
9.99999999999999,-23.9745959273831,-7.68114901860881,31.6557449459919
10.1,-23.7267402440441,-9.45205341116335,33.1787936552075
10.2,-22.8425870960358,-10.7432486902672,33.585835786303
10.3,-20.7538632457678,-12.6811109515625,33.4349741973303
10.4,-16.5526001637492,-16.5211293915655,33.0737295553146
10.5,-12.4192060943923,-20.1919855233185,32.6111916177108
10.6,-9.80007392742237,-22.2819927988716,32.082066726294
10.7,-7.3772750242456,-23.0095678734325,30.3868428976782
10.8,-3.78590002572009,-23.3275774939401,27.1134775196601
10.9,2.8324035396927,-25.1691810768908,22.3367775371981
11,7.4234096669838,-27.857339944876,20.4339302778922
11.1,9.33239050236007,-29.5532622076914,20.2208717053313
11.2,10.242248877811,-29.5954483790236,19.3531995012126
11.3,10.7453991056723,-28.0790058194357,17.3336067137633
11.4,11.8598585590978,-25.5796228405614,13.7197642814637
11.5,13.9777154145416,-24.2169242761273,10.2392088615856
11.6,15.9368842901414,-24.4960367345262,8.55915244438481
11.7,16.8323826576091,-23.951037744834,7.11865508722493
11.8,16.8150959497954,-21.9129194491482,5.09782349935289
11.9,16.6804074875732,-18.5083827413945,1.82797525382131
12,18.47184270733,-16.3193197676885,-2.15252293964154
12.1,21.7222046249098,-16.6208481108879,-5.10135651402189
12.2,22.9577782000922,-16.1068030410491,-6.85097515904313
12.3,22.1808086991276,-14.2001653942546,-7.98064330487294
12.4,20.5839121079012,-10.9057354481567,-9.6781766597445
12.5,20.8181067774541,-7.6758929957632,-13.1422137816909
12.6,22.6241098334301,-5.96246822129946,-16.6616416121307
12.7,23.1585852248896,-4.83490637808477,-18.3236788468048
12.8,22.0354736604387,-3.21561514008916,-18.8198585203495
12.9,19.459439928944,-0.50220553407214,-18.9572343948719
13,16.9075487282004,3.40621863103244,-20.3137673592329
13.1,16.9402514200841,5.96670532900197,-22.9069567490861
13.2,17.2705827828613,7.65917877732239,-24.9297615601837
13.3,16.8703663942723,8.87946897281843,-25.7498353670907
13.4,15.2816221226305,10.4082451736382,-25.6898672962688
13.5,12.2786800272814,13.3686478022363,-25.6473278295176
13.6,9.241198971219,16.6358531543027,-25.8770521255217
13.7,7.33529533837697,18.8793038898815,-26.2145992282585
13.8,5.07594737117376,19.9999260369395,-25.0758734081133
13.9,1.61080678729331,20.8694047296183,-22.4802115169116
14,-4.22807302877771,22.802339579134,-18.5742665503562
14.1,-8.0051394000423,25.2530771513136,-17.2479377512712
14.2,-9.75989575829371,27.4139997896171,-17.6541040313233
14.3,-10.7319299557761,28.0570181663277,-17.3250882105516
14.4,-11.5540114603554,27.0603291919125,-15.5063177315571
14.5,-13.1883894560094,25.3073928550606,-12.1190033990512
14.6,-15.4291198297226,24.562807031417,-9.13368720169444
14.7,-17.6642585969364,25.3352456136691,-7.67098701673274
14.8,-19.0237909964341,25.2930755095497,-6.26928451311564
14.9,-19.4922939374494,23.7135729970803,-4.22127905963097
15,-20.2694242028898,20.8637950054791,-0.594370802589297
15.1,-22.391286860818,18.68592960504,3.705357255778
15.2,-25.8457977797832,19.1159667452178,6.72983103456549
15.3,-27.6018499434807,18.8015364909632,8.80031345251755
15.4,-27.3482067346992,17.0881784400528,10.2600282946465
15.5,-26.0344489323296,13.6698297861296,12.3646191462
15.6,-26.2212274429683,9.99835655427148,16.2228708886968
15.7,-28.0272250107153,7.80513267104008,20.2220923396752
15.8,-28.8787197294952,6.44480765319277,22.4339120763024
15.9,-27.853278503269,4.64646473418229,23.2068137690867
16,-25.4981719349384,1.93761805159521,23.5605538833432
16.1,-22.3561714414195,-2.61365301260052,24.96982445402
16.2,-21.3021473828536,-6.09488006131672,27.3970274441704
16.3,-21.4588381486243,-8.15696590730585,29.6158040559302
16.4,-21.0767568312033,-9.54172296030989,30.6184797915132
16.5,-19.7321604914272,-10.9309028911637,30.6630633825909
16.6,-16.721439462428,-13.7352491536249,30.4566886160528
16.7,-12.6489075250043,-17.5719554599322,30.2208629849365
16.8,-9.78371604705807,-20.3289430001022,30.1126590471602
16.9,-7.66415700641202,-21.6571959233151,29.3213529297271
17,-4.71073154029535,-22.1677084718228,26.8784400121181
17.1,0.41604885879556,-23.264359917528,22.8483110587325
17.1999999999999,6.34284585693699,-25.8205197150072,19.4776738580702
17.3,8.80700489662487,-28.1856762116705,19.3786713150457
17.3999999999999,10.0959598862955,-29.1984631276435,19.102503241348
17.5,10.7675563292398,-28.4925728379427,17.7250165087029
17.5999999999999,11.6486079130725,-26.502757372333,14.8541494592605
17.6999999999999,13.620887272653,-24.6430743766318,11.0221871039787
17.7999999999999,15.7754823862784,-24.6490708946954,8.87358850841701
17.8999999999999,17.3925093693305,-24.9041003446683,7.51159097533782
17.9999999999999,17.785238934203,-23.5110489130343,5.72580997883124
18.0999999999999,17.7953566612893,-20.7906198195494,2.99526315826012
18.1999999999999,18.8203361630828,-17.6887169398805,-1.13161922320239
18.2999999999999,22.0674610822086,-17.4517615270652,-4.61569955514337
18.3999999999999,24.4219083084225,-17.4972369508147,-6.92467135760791
18.4999999999999,24.539178569952,-16.2373024769488,-8.30187609300317
18.5999999999999,23.2052579217147,-13.4545487650192,-9.75070915669553
18.6999999999999,22.3214267584382,-9.76572842749928,-12.5556983309389
18.7999999999999,23.9728046829743,-7.24039501395626,-16.7324096690181
18.8999999999999,25.2404674819036,-5.93379606201116,-19.3066714198925
18.9999999999999,24.8925853438215,-4.55718153227456,-20.3354038115469
19.0999999999999,22.9560275942191,-2.37753474777598,-20.5784928464431
19.1999999999999,19.8854570257503,1.43825283457312,-21.3237098603234
19.2999999999999,18.3616168092613,5.07072970843081,-23.4323465176922
19.3999999999999,18.7750451942869,7.18576808818503,-25.9608132824719
19.4999999999999,18.6979886369344,8.63798196196261,-27.335970598897
19.5999999999999,17.7145710661733,9.85953748280077,-27.5741085489741
19.6999999999999,15.3082345434787,12.1327550150746,-27.4409895585532
19.7999999999999,11.7406571062126,15.6580485084497,-27.3987056146622
19.8999999999999,9.00298971722045,18.5967398960969,-27.5997296133174
19.9999999999999,7.09246697442029,20.2205286639618,-27.3129956383821
20.0999999999999,4.3891866423544,20.9887738195898,-25.3779604619442
20.1999999999999,-0.219160035717384,22.0021704549941,-21.7830104192766
20.2999999999999,-6.09231806544009,24.4065465160949,-18.3142284506549
20.3999999999999,-8.74031297638656,26.8982082263301,-18.1578952499436
20.4999999999999,-10.1250748240579,28.3500159234061,-18.2249410993481
20.5999999999999,-10.9020673782839,28.1370705381375,-17.2350031598536
20.6999999999999,-11.853779005375,26.5094043753619,-14.6556253699868
20.7999999999999,-13.8381949412781,24.778711130798,-10.9405161895199
20.8999999999999,-16.0405974607042,24.726738786329,-8.68614132562479
20.9999999999999,-18.0026156763954,25.3574023986067,-7.3547867222113
21.0999999999999,-18.6382200555464,24.2676416524671,-5.6294215969206
21.1999999999999,-18.9770126099523,22.0787363367408,-3.10172372678857
21.2999999999999,-20.1110515319974,19.0400057838411,1.07104574815633
21.3999999999999,-23.0718441444131,18.2873865060269,4.7844576383862
21.4999999999999,-25.9135136803482,18.5674818441642,7.34603183618396
21.5999999999999,-26.534634888539,17.5707914488441,8.96384343969501
21.6999999999999,-25.5517441953088,15.1316905818554,10.4200536134534
21.7999999999999,-24.4746889346025,11.3043453331879,13.1703436014146
21.8999999999999,-25.7774220402053,8.38375927641139,17.3936627637939
21.9999999999999,-27.2903615596361,6.76810539405968,20.5222561655764
22.0999999999999,-27.4016849173374,5.45754962165202,21.9441352956853
22.1999999999999,-25.6914874750044,3.35459393231248,22.3368935426919
22.2999999999999,-22.6182064189838,-0.257920169521947,22.8761265885058
22.3999999999999,-20.1475147344822,-4.59103385818932,24.7385485926716
22.4999999999999,-20.4028893116193,-7.04379448676662,27.4466837983858
22.5999999999999,-20.4246596845603,-8.70681617752997,29.1314758620904
22.6999999999999,-19.611052413153,-9.92739472912098,29.538447142274
22.7999999999999,-17.5861671678511,-11.8405641805267,29.4267313483779
22.8999999999999,-13.8880406565919,-15.3506194000068,29.2386600565987
22.9999999999999,-10.4806002339137,-18.7024581957114,29.1830584296251
23.0999999999999,-8.31811786865872,-20.7161344247814,29.0342522934401
23.1999999999999,-5.94749075461427,-21.5040955834935,27.4515863381078
23.2999999999999,-2.1306879373058,-22.1622415431478,24.2929294804535
23.3999999999999,4.31087670157276,-24.3019098229795,19.9910331214068
23.4999999999999,7.96553179349455,-26.8469253091037,18.8813935156092
23.5999999999999,9.68647869348445,-28.6588181633491,18.9723394698647
23.6999999999999,10.5751514533171,-28.8090919250166,18.2339404716995
23.7999999999999,11.2773965866651,-27.4011997529267,16.1238031662615
23.8999999999999,12.7947236510104,-25.2544443652842,12.4597207142738
23.9999999999999,14.9796934338959,-24.4854848623542,9.50579142845837
24.0999999999999,17.0046651289806,-25.0068569860255,8.00219185704497
24.1999999999999,18.0456473278278,-24.5457472048652,6.50009987703744
24.2999999999999,18.1859761230392,-22.4879086209617,4.30193249792253
24.3999999999999,18.6533477716012,-19.3281686714086,0.67482089980736
24.4999999999999,20.9542414700152,-17.5798058432466,-3.37443562676868
24.5999999999999,24.2142335094957,-17.9775399120028,-6.23669359749292
24.6999999999999,25.4731107623193,-17.4354187775596,-8.03769198475975
24.7999999999999,24.688277088912,-15.3448679773363,-9.34340911157575
24.8999999999999,23.2857333248862,-11.8698569544144,-11.4158763704718
24.9999999999999,23.8497795165035,-8.53915404131662,-15.3106254751868
25.0999999999999,25.6174776354052,-6.73569907550609,-18.8817785598991
25.1999999999999,26.083463909348,-5.49514099730768,-20.5883229120404
25.2999999999999,24.8020960921533,-3.67181857223177,-21.1302775199216
25.3999999999999,22.1600676075926,-0.72033609744407,-21.4397315101486
25.4999999999999,19.4001143785876,3.58299691670224,-22.9831112952899
25.5999999999999,19.2358645879777,6.32851747795958,-25.5643820659372
25.6999999999999,19.4287239003515,8.10203815977528,-27.5307620601268
25.7999999999999,18.9291599373703,9.36642692721484,-28.2955868645852
25.8999999999999,17.3609301061332,10.8863915410328,-28.2473216471662
25.9999999999999,14.0506082813803,14.0564043097758,-28.1070125911561
26.0999999999999,10.544169188297,17.5510309693049,-28.095200157602
26.1999999999999,8.34468504198058,19.8599471864905,-28.204632228471
26.2999999999999,6.24660032247494,20.9345006750631,-27.181100997538
26.3999999999999,2.89677798282528,21.5249979066609,-24.4217758894862
26.4999999999999,-3.1588959499687,23.342837608178,-20.1839416582093
26.5999999999999,-7.51562875652929,25.8656232646615,-18.3499945081322
26.6999999999999,-9.45216772424134,28.0261148924836,-18.5739471682423
26.7999999999999,-10.4837292644428,28.6285440458159,-18.1448147813731
26.8999999999999,-11.1815899917808,27.5997303258571,-16.4181403340762
26.9999999999999,-12.5175434460507,25.5735133257123,-13.0559698796617
27.0999999999999,-14.72875779337,24.5126118771781,-9.78385408380805
27.1999999999999,-16.8915442425287,25.029201006151,-8.13765676362229
27.2999999999999,-18.0678754088351,24.7067894215303,-6.63891401269525
27.3999999999999,-18.576539850926,23.2802512180787,-4.7037113671527
27.4999999999999,-18.9855743919034,20.3653463359106,-1.37977194400711
27.5999999999999,-20.7927538575138,17.9189030585998,2.87385079891389
27.6999999999999,-24.2679755546403,18.2984040383767,5.96957151626358
27.7999999999999,-26.0365023583166,18.0268864023614,8.00961595595528
27.8999999999999,-25.7444003123144,16.349209836292,9.39519047602245
27.9999999999999,-24.3095955417194,13.102747726437,11.2068478152823
28.0999999999999,-24.3480486483724,9.49076776462698,14.8572808837454
28.1999999999999,-26.1160804921057,7.31937829982478,18.7967021922809
28.2999999999999,-27.015121838349,6.01993959544869,20.9951822429003
28.3999999999999,-26.0680207006416,4.33437443966724,21.7336462609744
28.4999999999999,-23.7738881357528,1.76499125868374,22.008896877069
28.5999999999999,-20.7422033412995,-2.55486696304579,23.2970703043452
28.6999999999999,-19.8254144806439,-5.87458685454241,25.7000013351862
28.7999999999999,-20.0884233768644,-7.8733416578737,27.9617650347381
28.8999999999999,-19.7509890472882,-9.21737290494633,28.9683619522345
28.9999999999999,-18.4384121026005,-10.6025613812729,29.0409734838734
29.0999999999999,-15.5561354224511,-13.3182185647363,28.8743539871874
29.1999999999999,-11.7561034586867,-17.0092530653487,28.7653565240355
29.2999999999999,-9.1073929081056,-19.7236132902418,28.8310061983474
29.3999999999999,-7.14092497224739,-21.0499639052974,28.1908888775447
29.4999999999999,-4.2666713225939,-21.6090381566171,25.8757094792111
29.5999999999999,1.20056066879153,-22.9225397435866,21.7219790747951
29.6999999999999,6.68223164238067,-25.4120020596137,18.729770417233
29.7999999999999,9.00409832225797,-27.8014834675603,18.7973851453024
29.8999999999999,10.2591520336155,-28.9030356893734,18.6438836557578
29.9999999999999,10.9377573063738,-28.1518656040397,17.2141082976659
30.0999999999999,11.9413000390514,-26.2471501462857,14.3058501072344
30.1999999999999,14.0116501082431,-24.6009292249074,10.5892791166644
30.2999999999999,16.1921819812922,-24.7936991919986,8.60151721070652
30.3999999999999,17.7082585331727,-24.9129099619861,7.2046514288134
30.4999999999999,18.2978302273135,-23.7315599984242,5.4337297711107
30.5999999999999,18.4722562122006,-21.052151674241,2.57989546204039
30.6999999999999,19.7665125398221,-18.1021845888905,-1.66432795093156
30.7999999999999,23.054209430021,-17.9635169382112,-5.09069249180979
30.8999999999999,25.4069966027308,-18.012043084817,-7.39495351791378
30.9999999999999,25.5077549180303,-16.6933882529236,-8.81436666510672
31.0999999999999,24.2340503182344,-13.8594090263441,-10.3746412918902
31.1999999999999,23.4505053502013,-10.0860286647117,-13.3644766854897
31.2999999999999,25.1731085528401,-7.56157716121964,-17.6115313916204
31.3999999999999,26.42047149927,-6.21329695991641,-20.2071745393536
31.4999999999999,26.0051801333268,-4.76737602734683,-21.23780410598
31.5999999999999,24.0447655961196,-2.51734835509785,-21.5274172410217
