"Time [ms]","Current(PhaseA) [A]","Current(PhaseB) [A]","Current(PhaseC) [A]"
0,0,0,0
0.1,7.21495437678214e-07,0.660160552668271,-0.660161274163709
0.2,-6.33421182737666e-06,1.32238339518042,-1.32237706096859
0.3,-1.33899190924315e-05,1.98460623769257,-1.98459284777348
0.4,-2.04456263574864e-05,2.64682908020472,-2.64680863457836
0.5,-2.75013336225413e-05,3.30905192271686,-3.30902442138324
0.6,0.838653547617214,4.45242992281344,-5.29108347043065
0.7,1.52464595051394,5.77055696914544,-7.29520291965938
0.8,1.5629327606995,6.82395392063781,-8.38688668133731
0.9,0.574243027397072,7.88972787530809,-8.46397090270515
1,-0.928996975289576,9.79227224413159,-8.86327526884203
1.1,-2.01564919848506,12.3303373119055,-10.3146881134204
1.2,-3.03267744353495,14.4742778671825,-11.4416004236476
1.3,-4.74263310368776,16.0061761024636,-11.2635429987758
1.4,-7.20207125750303,17.2155238193975,-10.0134525618945
1.5,-9.73413620553994,18.6788112662092,-8.94467506066924
1.6,-11.6636817634742,20.650634052997,-8.98695228952275
1.7,-13.2029894203202,23.2117720313085,-10.0087826109884
1.8,-14.9349138975127,24.8379648202783,-9.90305092276561
1.9,-17.3623393031306,25.4875031425439,-8.12516383941334
2,-20.3013778977486,26.2427140188553,-5.94133612110677
2.1,-22.957270719593,27.4488353665919,-4.49156464699888
2.2,-25.6769687114762,28.8653820903919,-3.18841337891576
2.3,-27.756732141306,28.9322586737,-1.17552653239401
2.4,-29.7049374204264,27.9484074337669,1.75652998665952
2.5,-31.9957689436884,25.763111346817,6.23265759687139
2.6,-34.4630893322131,24.4546498125535,10.0084395196595
2.7,-37.6105309196016,24.7534486131467,12.8570823064548
2.8,-39.036856950866,23.9503890391778,15.0864679116882
2.9,-39.176013463728,21.7325009123442,17.4435125513838
3,-38.8404974031693,17.7444027401416,21.0960946630279
3.1,-39.5809167624002,13.4730442043792,26.107872558021
3.2,-40.9037984336156,11.0433136011547,29.8604848324609
3.3,-41.1167634163315,9.13264037959487,31.9841230367366
3.4,-39.5529499567596,6.59975092381159,32.9531990329479
3.5,-36.6681469857258,2.88501994147208,33.7831270442537
3.6,-32.8266764741227,-2.84803261067718,35.6747090847998
3.7,-30.7151907842303,-7.45817092819823,38.1733617124285
3.8,-30.0869832921604,-10.0593560882818,40.1463393804422
3.9,-28.9496342197634,-11.7703936895564,40.7200279093198
4,-26.9116647165154,-13.437887795073,40.3495525115884
4.1,-22.8788476005876,-16.5641185591616,39.4429661597491
4.2,-17.0491191317175,-21.3716151530558,38.4207342847733
4.3,-12.7009723756788,-24.6126857739237,37.3136581496026
4.4,-9.90218305736993,-26.0150767847969,35.9172598421668
4.5,-7.1215686864236,-26.1666106274646,33.2881793138882
4.6,-2.79907771200719,-26.2329946126861,29.0320723246933
4.7,4.18084670900553,-28.277476694273,24.0966299852674
4.8,7.60233869958666,-30.3946733493665,22.7923346497799
4.9,8.90627424558337,-30.8775189863854,21.9712447408021
5,9.34337153721071,-29.7415739226763,20.3982023854656
5.1,9.75692352779038,-27.3309811375398,17.5740576097494
5.2,11.4031358448505,-24.6963179836569,13.2931821388065
5.3,13.9831836813232,-23.8333336612721,9.85014997994886
5.4,15.646866752021,-23.7556908111771,8.10882405915605
5.5,16.0232881115416,-22.4900693559333,6.46678124439176
5.6,15.5511105834604,-19.7559871891817,4.20487660572118
5.7,15.183860433954,-16.0061765390469,0.822316105092893
5.8,17.5462052211468,-14.7444283131404,-2.80177690800648
5.9,19.6097900854728,-14.6891644843835,-4.92062560108935
6,19.6785926967444,-13.7393991169803,-5.93919357976414
6.1,18.2157864853874,-11.4947389386394,-6.72104754674805
6.2,16.7161061539452,-8.14678603253035,-8.56932012141485
6.3,17.531000899368,-5.69550279306182,-11.8354981063062
6.4,18.5979817009636,-4.49127091752665,-14.106710783437
6.5,18.2506634429157,-3.34355480926289,-14.9071086336528
6.6,16.485966561327,-1.57186010190457,-14.9141064594224
6.7,13.6210454754019,1.41092307305227,-15.0319685484542
6.8,12.4788303005937,4.31775104704175,-16.7965813476355
6.9,13.1405156297391,6.20866653771545,-19.3491821674545
7.00000000000001,13.1274301342437,7.6011944918818,-20.7286246261255
7.10000000000001,11.9723768098968,8.89835692826768,-20.8707337381645
7.20000000000001,9.60056216257634,10.9677072178287,-20.5682693804051
7.30000000000001,6.82158995042986,14.0559847333998,-20.8775746838297
7.40000000000001,5.10394748353458,16.6580843844257,-21.7620318679603
7.50000000000001,3.26327634981594,18.2604191718081,-21.523695521624
7.60000000000001,0.658669269430006,19.4524377276448,-20.1111069970748
7.70000000000001,-3.66591666698103,20.784741461523,-17.118824794542
7.80000000000001,-7.53547341818263,22.8034614927415,-15.2679880745588
7.90000000000001,-9.28510462897872,25.083463940524,-15.7983593115452
8.00000000000001,-10.4323657832021,26.4892443191408,-16.0568785359388
8.10000000000001,-11.6657770166688,26.6404423170231,-14.9746653003543
8.20000000000001,-13.7853121885894,25.8668441281448,-12.0815319395554
8.3,-16.670614225671,25.5239001179737,-8.85328589230273
8.4,-19.2942359358899,26.3299858907093,-7.0357499548194
8.5,-21.4998964490094,27.2010870621699,-5.70119061316047
8.6,-22.6440417282462,26.2793265949824,-3.63528486673617
8.7,-23.8791763191107,24.4862020017385,-0.607025682627841
8.8,-25.8133817222816,21.7837172058651,4.02966451641652
8.9,-28.5461090159543,21.0971314150133,7.44897760094097
9,-31.0412686229199,21.1783914518824,9.86287717103747
9.1,-31.7003107192041,20.1011087012684,11.5992020179356
9.2,-30.9590127324995,17.3471986406162,13.6118140918832
9.3,-30.4458200494067,13.2298520676823,17.2159679817245
9.4,-31.6122826079226,10.0192264989949,21.5930561089277
9.5,-32.6364690705796,8.17658940225903,24.4598796683206
9.6,-32.2981193664796,6.49984651235711,25.7982728541225
9.7,-30.4225380067807,4.10168035077769,26.320857656003
9.8,-27.090839556321,-0.0383258697845141,27.1291654261055
9.9,-24.0975458032736,-4.95083930740603,29.0483851106795
9.99999999999999,-23.9398588382016,-7.7109256936557,31.6507845318574
10.1,-23.5423268824479,-9.54732972435825,33.0896566068061
10.2,-22.3796656670559,-10.9445620545925,33.3242277216484
10.3,-19.7639563854465,-13.0594585658214,32.8234149512679
10.4,-15.1615626804407,-17.0522543248877,32.2138170053285
10.5,-11.0730521066873,-20.7372128412851,31.8102649479723
10.6,-8.68105028636647,-22.7704180441491,31.4514683305156
10.7,-6.39736916716638,-23.4226540282766,29.8200231954429
10.8,-3.01066337075823,-23.7179662858097,26.7286296565678
10.9,3.1903588552642,-25.4095219389583,22.2191630836942
11,7.23545998026646,-27.7987404191243,20.5632804388578
11.1,8.89600980928087,-29.341154931833,20.4451451225521
11.2,9.68188133053043,-29.2697203666903,19.5878390361599
11.3,10.2721570766404,-27.827489087748,17.5553320111075
11.4,11.9264220038296,-25.6752852404573,13.7488632366277
11.5,14.7722718415507,-24.7811492968637,10.008877455313
11.6,17.1376120763,-25.2615550616343,8.12394298533438
11.7,18.3101438071262,-24.9521245570544,6.64198074992817
11.8,18.3825262795745,-22.9975829385332,4.61505665895877
11.9,18.5098525390624,-19.6939355438458,1.1840830047834
12,20.30593000863,-17.281243378397,-3.02468663023298
12.1,23.1870926001872,-17.3798657239105,-5.80722687627663
12.2,24.2043034240227,-16.8291706223511,-7.37513280167168
12.3,23.5385588871435,-15.0344858220952,-8.50407306504829
12.4,21.9973138901316,-11.7427028356399,-10.2546110544918
12.5,22.1910677504278,-8.26603233783181,-13.925035412596
12.6,23.5028638658044,-6.39961252471134,-17.1032513410931
12.7,23.8248095457708,-5.15803077907933,-18.6667787666914
12.8,22.5508465430778,-3.45603529042801,-19.0948112526497
12.9,19.8399073504793,-0.657558004023715,-19.1823493464556
13,17.0966538336487,3.31793942133192,-20.4145932549806
13.1,16.9933582276689,5.9367503757664,-22.9301086034353
13.2,17.1780494859736,7.69301132331571,-24.8710608092893
13.3,16.5600091438648,9.00241875357101,-25.5624278974357
13.4,14.5670786858094,10.6703637628653,-25.2374424486746
13.5,11.199031833656,13.7646885779096,-24.9637204115656
13.6,8.15230333368119,17.0411589534786,-25.1934622871598
13.7,6.34839844880878,19.254045311379,-25.6024437601878
13.8,4.15828605380136,20.3771980816101,-24.5354841354115
13.9,0.868395828345474,21.1921951682325,-22.060590996578
14,-4.51196239114326,22.9339450686476,-18.4219826775043
14.1,-7.78278779563829,25.1186671457566,-17.3358793501183
14.2,-9.30847504611214,27.1267083094455,-17.8182332633334
14.3,-10.2799910022451,27.7691812134588,-17.4891902112138
14.4,-11.403533151992,26.9375637388682,-15.5340305868762
14.5,-13.5865937863001,25.6220471849878,-12.0354533986877
14.6,-16.4101498722326,25.323725214681,-8.9135753424484
14.7,-18.951082997831,26.2490187889256,-7.29793579109463
14.8,-20.5536557173073,26.4251406547367,-5.87148493742947
14.9,-21.1971092846406,24.9064365428752,-3.70932725823461
15,-22.1828605543362,22.092703166315,0.0901573880212413
15.1,-24.1123356432883,19.6287904870594,4.48354515622893
15.2,-27.198601047399,19.8197537110833,7.37884733631575
15.3,-28.7425840578715,19.4336343913144,9.30894966655713
15.4,-28.5151844474288,17.7170054427438,10.798179004685
15.5,-27.401392396935,14.4261693823177,12.9752230146172
15.6,-27.5107469876563,10.4942540548047,17.0164929328516
15.7,-28.8812227021686,8.15141670563107,20.7298059965375
15.8,-29.4588675953446,6.71201690464478,22.7468506906998
15.9,-28.4915480981271,4.97938835142117,23.5121597467059
16,-25.7943968334167,2.03630407784116,23.7580927555755
16.1,-22.5224973068766,-2.57795619689223,25.1004535037688
16.2,-21.3464769601175,-6.0910451791463,27.4375221392638
16.3,-21.3800848138539,-8.2100127799845,29.5900975938384
16.4,-20.8023963492207,-9.67746816002343,30.4798645092441
16.5,-19.0681949022166,-11.2014309356292,30.2696258378457
16.6,-15.5680332076028,-14.1794104545663,29.7474436621691
16.7,-11.3451590103282,-18.0961609079428,29.441319918271
16.8,-8.66286591892398,-20.8053337968297,29.4681997157537
16.9,-6.66519145274496,-22.0772135744665,28.7424050272115
17,-3.86985569627065,-22.5802465648186,26.4501022610892
17.1,1.06312733756678,-23.6334638056841,22.5703364681173
17.1999999999999,6.33740404823062,-25.8656706895488,19.5282666413182
17.3,8.45237611746824,-28.0168516165315,19.5644754990632
17.3999999999999,9.58029871498932,-28.8943236708311,19.3140249558418
17.5,10.2850975886722,-28.2333313447985,17.9482337561263
17.5999999999999,11.550592257941,-26.4713100287583,14.9207177708174
17.6999999999999,14.2343143349617,-25.1121391822094,10.8778248472478
17.7999999999999,16.8969601189331,-25.4121027234905,8.51514260455734
17.8999999999999,18.7376495098143,-25.7760262681999,7.03837675838555
17.9999999999999,19.3617654529792,-24.644788061746,5.28302260876679
18.0999999999999,19.5742554513721,-22.0343300238654,2.46007457249323
18.1999999999999,20.761100895845,-18.8116851082015,-1.94941578764349
18.2999999999999,23.6310284657508,-18.268208222256,-5.36282024349476
18.3999999999999,25.7091730136403,-18.2161261556273,-7.49304685801306
18.4999999999999,25.7931092630685,-16.9737055777519,-8.81940368531655
18.5999999999999,24.6009815466409,-14.3226822773543,-10.2782992692867
18.6999999999999,23.7961662251413,-10.4249891896147,-13.3711770355265
18.7999999999999,25.0202907276194,-7.73415403258025,-17.2861366950391
18.8999999999999,25.9465041399397,-6.2787359852186,-19.6677681547211
18.9999999999999,25.5292526469558,-4.88278291383056,-20.6464697331252
19.0999999999999,23.3654497495132,-2.55360700620114,-20.8118427433121
19.1999999999999,20.1733485171792,1.32339790572586,-21.4967464229051
19.2999999999999,18.4740614824533,5.02201013295188,-23.4960716154052
19.3999999999999,18.7546224089521,7.19904633272402,-25.9536687416761
19.4999999999999,18.5015731494655,8.72250175601354,-27.224074905479
19.5999999999999,17.2221343289966,10.0550918560107,-27.2772261850073
19.6999999999999,14.344112119772,12.4811334038092,-26.8252455235812
19.7999999999999,10.5569654710581,16.1040567375196,-26.6610222085778
19.8999999999999,7.92677254254,19.0181509303741,-26.9449234729141
19.9999999999999,6.10911839202687,20.6091553190515,-26.7182737110783
20.0999999999999,3.53895836617708,21.3836666011432,-24.9226249673202
20.1999999999999,-0.896741600505225,22.3438323639783,-21.4470907634731
20.2999999999999,-6.16392942514421,24.4391539115987,-18.2752244864545
20.3999999999999,-8.40746723739715,26.7132833494775,-18.3058161120804
20.4999999999999,-9.62733009437145,28.058743972388,-18.4314138780166
20.5999999999999,-10.462187649931,27.8769213423978,-17.4147336924668
20.6999999999999,-11.7927318518594,26.4794374915057,-14.6867056396462
20.7999999999999,-14.4383817000243,25.2329182313471,-10.7945365313229
20.8999999999999,-17.1452316447445,25.5072590033812,-8.36202735863669
20.9999999999999,-19.2853229905131,26.2003272556981,-6.91500426518506
21.0999999999999,-20.2850346777119,25.5591157706567,-5.27408109294482
21.1999999999999,-20.745495842861,23.277386316856,-2.53189047399497
21.2999999999999,-22.007872295874,20.1254078470514,1.88246444882248
21.3999999999999,-24.6461674511462,19.1142848587162,5.53188259243008
21.4999999999999,-27.2148495192112,19.2639678114495,7.9508817077616
21.5999999999999,-27.6903731654285,18.2282580576982,9.46211510773028
21.6999999999999,-26.8469689423807,15.8368649741775,11.0101039682032
21.7999999999999,-25.8192941092776,11.9470887630842,13.8722053461933
21.8999999999999,-26.8977439691075,8.8003551342671,18.0973888348404
21.9999999999999,-28.0152199914327,7.09194965105987,20.9232703403728
22.0999999999999,-27.8328366155785,5.65472732846749,22.178109287111
22.1999999999999,-26.1576350896137,3.56724739420103,22.5903876954127
22.2999999999999,-22.9147329952521,-0.171832434082041,23.0865654293342
22.3999999999999,-20.266346904248,-4.55447221289448,24.8208191171424
22.4999999999999,-20.3993526695764,-7.06124050462525,27.4605931742017
22.5999999999999,-20.2725521138366,-8.79000893299301,29.0625610468296
22.6999999999999,-19.1862147120469,-10.1177121955841,29.303926907631
22.7999999999999,-16.6984154969391,-12.1799735173526,28.8783890142917
22.8999999999999,-12.6482400042801,-15.8442792380607,28.4925192423409
22.9999999999999,-9.2988579741968,-19.1852392096722,28.484097183869
23.0999999999999,-7.29284807476164,-21.1390761843327,28.4319242590943
23.1999999999999,-5.0414095455831,-21.9294130765336,26.9708226221167
23.2999999999999,-1.35067365414813,-22.5536230796317,23.9042967337798
23.3999999999999,4.59845022382179,-24.485992906077,19.8875426822553
23.4999999999999,7.73381323559417,-26.7579100842703,19.0240968486761
23.5999999999999,9.2233780974934,-28.4151068746212,19.1917287771278
23.6999999999999,10.0551878261508,-28.5261878352494,18.4710000090986
23.7999999999999,11.0020851465154,-27.2420492072766,16.2399640607612
23.8999999999999,13.1123770293203,-25.5239540036872,12.411576974367
23.9999999999999,15.9377019680118,-25.177371335578,9.2396693675662
24.0999999999999,18.2993489172922,-25.8991590569669,7.59981013967465
24.1999999999999,19.4245573294796,-25.4014091155237,5.97685178604402
24.2999999999999,19.877012929815,-23.6906382879026,3.81362535808758
24.3999999999999,20.5668045414987,-20.5515035350188,-0.0153010064799471
24.4999999999999,22.7094547197838,-18.5272833557734,-4.18217136401044
24.5999999999999,25.5872271030045,-18.7122386220056,-6.87498848099897
24.6999999999999,26.6298433769794,-18.0910939322126,-8.5387494447668
24.7999999999999,26.0153171645912,-16.1718238510352,-9.84349331355602
24.8999999999999,24.7091931134485,-12.6298592081453,-12.0793339053032
24.9999999999999,25.1460213396717,-9.093605079326,-16.0524162603457
25.0999999999999,26.4405592204512,-7.12894438767378,-19.3116148327774
25.1999999999999,26.6691272918218,-5.77610116671713,-20.8930261251046
25.2999999999999,25.3188290458501,-3.92118067349259,-21.3976483723575
25.3999999999999,22.4998304071937,-0.866782640016441,-21.6330477671773
25.4999999999999,19.5797884736595,3.48681315969982,-23.0666016333594
25.5999999999999,19.2698656764436,6.31144697607287,-25.5813126525165
25.6999999999999,19.3240286411272,8.14912218644332,-27.4731508275705
25.7999999999999,18.5964346084911,9.50293695569858,-28.0993715641897
25.8999999999999,16.6117367749111,11.1601443148909,-27.771881089802
25.9999999999999,12.883991266767,14.4859895009958,-27.3699807677628
26.0999999999999,9.34831885430625,18.0095168944117,-27.3578357487179
26.1999999999999,7.32062977009103,20.2790317932052,-27.5996615632962
26.2999999999999,5.26457431333105,21.321830853485,-26.586405166816
26.3999999999999,2.0082138439745,21.9267711342527,-23.9349849782272
26.4999999999999,-3.54657056659384,23.5472774826714,-20.0007069160776
26.5999999999999,-7.35558187320313,25.7763277346881,-18.420745861485
26.6999999999999,-9.03551292434406,27.7823679338201,-18.746855009476
26.7999999999999,-9.9729716054508,28.2736123757171,-18.3006407702663
26.8999999999999,-10.8401971619662,27.3962394840619,-16.5560423220958
26.9999999999999,-12.7303498949598,25.7435786161388,-13.013228721179
27.0999999999999,-15.604827791101,25.1481688134571,-9.54334102235608
27.1999999999999,-18.1381255406407,25.8848664811142,-7.74674094047351
27.2999999999999,-19.6871571099837,25.9889929838413,-6.30183587385752
27.3999999999999,-20.2106101910585,24.4815425041808,-4.27093231312231
27.4999999999999,-20.8431683740177,21.6030035509766,-0.759835176958808
27.5999999999999,-22.6032050207402,18.9075959052207,3.69560911551956
27.6999999999999,-25.6975279334262,19.040737305144,6.65679062828214
27.7999999999999,-27.280462515575,18.7257318577931,8.55473065778183
27.8999999999999,-26.9495344799891,17.0273722774444,9.92216220254471
27.9999999999999,-25.7532969500385,13.8884948263074,11.8648021237311
28.0999999999999,-25.6476405875279,9.99617763532227,15.6514629522057
28.1999999999999,-27.0401149620696,7.70511521559988,19.3349997464697
28.2999999999999,-27.6826872998805,6.31897934001454,21.363707959866
28.3999999999999,-26.6508013359885,4.6097403412278,22.0410609947607
28.4999999999999,-24.1257333698446,1.87470994641275,22.2510234234319
28.5999999999999,-20.9367560270526,-2.51416432218455,23.4509203492372
28.6999999999999,-19.8959391633819,-5.86293195418872,25.7588711175706
28.7999999999999,-20.0292361662401,-7.92140003369726,27.9506361999374
28.8999999999999,-19.4968514090873,-9.34873822487045,28.8455896339578
28.9999999999999,-17.8101812195264,-10.8646935046361,28.6748747241625
29.0999999999999,-14.4498614523782,-13.7528483054625,28.2027097578407
29.1999999999999,-10.5257623903296,-17.500558601668,28.0263209919976
29.2999999999999,-8.0402281386526,-20.1514089172076,28.1916370558603
29.3999999999999,-6.14582027428673,-21.4679299238928,27.6137501981795
29.4999999999999,-3.34604601582047,-22.043951901241,25.3899979170614
29.5999999999999,1.75751542317489,-23.2292208726354,21.4717054494605
29.6999999999999,6.63345545211814,-25.4312063875984,18.7977509354802
29.7999999999999,8.62654985672979,-27.6180785079591,18.9915286512293
29.8999999999999,9.72731161751055,-28.5675401265631,18.8402285090526
29.9999999999999,10.5063286557477,-27.9004408987041,17.3941122429565
30.0999999999999,11.9554111020501,-26.2966280835535,14.3412169815033
30.1999999999999,14.7122638800526,-25.1265323907055,10.4142685106529
30.2999999999999,17.353218723462,-25.6026550897568,8.24943636629487
30.3999999999999,19.2314861557655,-26.0623835448519,6.83089738908635
30.4999999999999,19.8077265525023,-24.6756265053523,4.86789995285001
30.5999999999999,20.2786207852432,-22.309317705038,2.03069691979475
30.6999999999999,21.6734024562762,-19.2342513861265,-2.43915107014965
30.7999999999999,24.5779401455894,-18.7732340856417,-5.80470605994765
30.8999999999999,26.6331176769063,-18.6997503474918,-7.93336732941452
30.9999999999999,26.7538098880906,-17.435856531701,-9.31795335638961
31.0999999999999,25.5928348307062,-14.6749506371477,-10.9178841935586
31.1999999999999,24.9387287541504,-10.7533769014063,-14.1853518527441
31.2999999999999,26.1811917913451,-8.03420464162124,-18.1469871497239
31.3999999999999,27.0822394153981,-6.54095876629112,-20.541280649107
31.4999999999999,26.6071110525201,-5.07284595336992,-21.5342650991501
31.5999999999999,24.4178735904623,-2.67916281531062,-21.7387107751517
