"Time [ms]","Current(PhaseA) [A]","Current(PhaseB) [A]","Current(PhaseC) [A]"
0,0,0,0
0.05,5.30721467945325e-06,0.326597300258575,-0.326602607473255
0.1,2.85433158221951e-06,0.655196604255999,-0.655199458587582
0.15,4.0144848498576e-07,0.983795908253423,-0.983796309701909
0.2,-2.05143461224799e-06,1.31239521225085,-1.31239316081624
0.25,-4.50431770948173e-06,1.64099451624827,-1.64099001193056
0.3,-6.95720080671548e-06,1.9695938202457,-1.96958686304489
0.35,-9.41008390394923e-06,2.29819312424312,-2.29818371415922
0.4,-1.1862967001183e-05,2.62679242824054,-2.62678056527355
0.45,-1.43158500984167e-05,2.95539173223797,-2.95537741638787
0.5,-1.67687331956505e-05,3.28399103623539,-3.2839742675022
0.55,0.357773110570443,3.75672608446834,-4.11449919503878
0.6,0.936938688279104,4.37699155122167,-5.31393023950078
0.65,1.39137044003061,5.03062941700149,-6.4219998570321
0.7,1.71185521344841,5.64483179285572,-7.35668700630413
0.75,1.89052322229739,6.186361649336,-8.0768848716334
0.8,1.83937061922754,6.66984773929524,-8.50921835852279
0.85,1.55070175593759,7.14077295770153,-8.69147471363913
0.9,0.960112418655417,7.70611811782188,-8.6662305364773
0.95,0.259253407516158,8.47335452351331,-8.73260793102947
1,-0.54212065828394,9.56313838440842,-9.02101772612449
1.05,-1.15865385650918,10.8813557546459,-9.72270189813679
1.1,-1.64320447644714,12.1490902635256,-10.5058857870785
1.15,-2.12338651833014,13.3010219526779,-11.1776354343478
1.2,-2.70669384701817,14.3093547575303,-11.6026609105122
1.25,-3.45301360413815,15.1777597556467,-11.7247461515086
1.3,-4.50939711444836,15.8839245763757,-11.3745274619273
1.35,-5.75665876268225,16.5205686822533,-10.7639099195711
1.4,-7.13179365484798,17.1656224105508,-10.0338287557028
1.45,-8.55637625753739,17.905191327205,-9.34881506966759
1.5,-9.7793009382517,18.661224377835,-8.88192343958337
1.55,-10.8353226044696,19.3944471128635,-8.5591245083939
1.6,-11.5310194092636,20.5118546926814,-8.98083528341783
1.65,-12.1187247064738,21.7486496797816,-9.62992497330784
1.7,-12.7636160755555,22.8269481494234,-10.0633320738678
1.75,-13.4676921518042,23.630135075499,-10.1624429236948
1.8,-14.226593897569,24.2420353918575,-10.0154414942884
1.85,-15.2664325525019,24.4653825635203,-9.1989500110184
1.9,-16.4338763090767,24.6863784223595,-8.25250211328271
1.95,-17.8358179766145,24.9030533101866,-7.06723533357207
2,-19.1466019016826,25.25828350392,-6.11168160223734
2.05,-20.3632463023627,25.7429880932395,-5.37974179087682
2.1,-21.5801432439341,26.3804912068859,-4.80034796295178
2.15,-22.8267867210969,27.0853715041457,-4.25858478304873
2.2,-24.0995474628477,27.8299854111823,-3.73043794833465
2.25,-25.1018214040618,27.9236094080138,-2.82178800395203
2.3,-26.0361351981941,27.8536713753543,-1.81753617716019
2.35,-26.9716132011966,27.7574035667362,-0.785790365539595
2.4,-27.9849303856603,26.9760654629605,1.00886492269989
2.45,-29.1556351994444,25.9526414454174,3.202993754027
2.5,-30.4955003945323,24.9579888790837,5.53751151544864
2.55,-31.8957068032355,24.239171496829,7.65653530640652
2.6,-33.216707319533,23.8194164042718,9.39729091526117
2.65,-35.0645772013963,24.1272610432862,10.9373161581101
2.7,-36.6774297592976,24.320853398786,12.3565763605116
2.75,-37.7416852102654,24.1532865395825,13.5883986706829
2.8,-38.2688644430947,23.5844864756236,14.6843779674711
2.85,-38.444808239409,22.7518279923471,15.6929802470619
2.9,-38.2356423179167,21.271968473294,16.9636738446228
2.95,-37.9521186285552,19.4651357910326,18.4869828375225
3,-37.6515116949799,17.2142131137982,20.4372985811816
3.05,-37.8658472059368,14.9324187753238,22.933428430613
3.1,-38.6146156000392,13.1592061444891,25.4554094555501
3.15,-39.6002882599571,11.872680357671,27.7276079022861
3.2,-40.3868984531794,10.8416119946131,29.5452864585663
3.25,-40.8290484347618,9.93938134666987,30.8896670880919
3.3,-40.9495475995194,9.06842192704555,31.8811256724739
3.35,-40.4471422110425,7.99842980471318,32.4487124063294
3.4,-39.5288972376626,6.64943913722278,32.8794581004398
3.45,-38.2560103162336,5.05374968331342,33.2022606329202
3.5,-36.5168534277632,2.86314800886574,33.6537054188974
3.55,-34.6314933892073,0.130994244325511,34.5004991448818
3.6,-32.7546060114027,-2.8638900199124,35.6184960313152
3.65,-31.1344804005108,-5.59530694563736,36.7297873461481
3.7,-30.757231934206,-7.43833786428447,38.1955697984905
3.75,-30.5258257862922,-8.8527570064756,39.3785827927678
3.8,-30.2365004598869,-9.99233332287014,40.2288337827571
3.85,-29.8441814852622,-10.8747594862265,40.7189409714887
3.9,-29.3171802641056,-11.6180957462744,40.93527601038
3.95,-28.6434501397612,-12.3241369504095,40.9675870901707
4,-27.7260300027285,-13.1502879205386,40.8763179232671
4.05,-26.3396496367171,-14.3451939125195,40.6848435492365
4.1,-24.3066128814536,-16.0729683774819,40.3795812589355
4.15,-21.5804648500486,-18.4324291599999,40.0128940100485
4.2,-18.757394948516,-20.7491395564245,39.5065345049406
4.25,-16.2583784026608,-22.6103081116391,38.8686865142998
4.3,-14.1999026615872,-24.0035841804325,38.2034868420196
4.35,-12.4932315013041,-24.995139702596,37.4883712039
4.4,-11.080636062625,-25.5235774444818,36.6042135071068
4.45,-9.66693238539775,-25.7275101187545,35.3944425041522
4.5,-8.10082845171108,-25.7544109062572,33.8552393579684
4.55,-6.08283534613393,-25.6884145099974,31.7712498561314
4.6,-3.49793700813709,-25.8728009228759,29.370737931013
4.65,0.18522855834417,-26.7286916025185,26.5434630441743
4.7,4.02260180626721,-28.135254954736,24.1126531484688
4.75,6.49188249561095,-29.5507375831074,23.0588550874964
4.8,7.92776894700517,-30.5325066543024,22.6047377072972
4.85,8.88906944274088,-31.105530558341,22.2164611156001
4.9,9.45261937601927,-31.1636728895423,21.7110535135231
4.95,9.74711334244115,-30.7636813039204,21.0165679614793
5,9.93533970765919,-30.0598995502813,20.1245598426221
5.05,10.0460074214407,-28.9775945577391,18.9315871362984
5.1,10.2288834080286,-27.5843543718542,17.3554709638255
5.15,10.5784286380139,-26.0409834466232,15.4625548086093
5.2,11.2946731357334,-24.5713889450686,13.2767158093352
5.25,12.2683972524978,-23.661790277209,11.3933930247112
5.3,13.1790923455351,-23.3130296844171,10.133937338882
5.35,13.9694348592784,-23.2766372651241,9.30720240584568
5.4,14.4419923009229,-23.0383892945222,8.5963969935993
5.44999999999999,14.7232093187093,-22.6230214443265,7.8998121256172
5.49999999999999,14.5944180027871,-21.5999598883576,7.00554188557058
5.54999999999999,14.4235745754986,-20.4789792649921,6.05540468949349
5.59999999999999,14.0434976021342,-18.842339629144,4.79884202700983
5.64999999999999,13.624831804215,-16.9576121722043,3.33278036798926
5.69999999999999,13.4129016054705,-15.0057328003151,1.59283119484454
5.74999999999999,14.1672163184427,-13.9613216903516,-0.205894628091055
5.79999999999999,15.7940673553147,-13.9295427393789,-1.86452461593579
5.84999999999999,17.2435368723925,-14.0152672192296,-3.22826965316293
5.89999999999999,18.1675081471182,-13.9410431762346,-4.22646497088357
5.94999999999999,18.4574775723602,-13.5701804677056,-4.88729710465456
5.99999999999999,18.2865959210112,-12.9172032376215,-5.3693926833896
6.04999999999999,17.702130106019,-11.9603020039729,-5.74182810204608
6.09999999999999,16.7393474239849,-10.5988170270945,-6.14053039689039
6.14999999999999,15.7439169365346,-8.9595475571533,-6.7843693793813
6.19999999999999,15.2621794744184,-7.38401824010879,-7.87816123430956
6.24999999999999,15.364537918345,-6.01227627306264,-9.35226164528229
6.29999999999999,16.2524154474317,-5.10339163619355,-11.1490238112382
6.34999999999999,17.1206816629416,-4.50282200804754,-12.6178596548941
6.39999999999999,17.7271228295474,-4.0469865144226,-13.6801363151248
6.44999999999999,17.8283387924722,-3.57556482566286,-14.2527739668094
6.49999999999999,17.5709060055485,-2.99241740164363,-14.5784886039049
6.54999999999999,16.9874681033618,-2.29839011111015,-14.6890779922516
6.59999999999999,15.9297022326701,-1.29103491153769,-14.6386673211324
6.64999999999999,14.5743585822525,-0.00560299028922212,-14.5687555919634
6.69999999999999,13.2569807418084,1.57386882765083,-14.8308495694592
6.74999999999999,12.3645776290757,3.15882654994268,-15.5234041790184
6.79999999999999,12.3033862686077,4.4117127905897,-16.7150990591974
6.84999999999999,12.7446971214121,5.38716967646692,-18.1318667978791
6.89999999999999,13.1192166230216,6.2338223508117,-19.3530389738334
6.94999999999999,13.312292615229,6.96742002093067,-20.2797126361596
6.99999999999998,13.2676955836911,7.55279085959581,-20.8204864432868
7.04999999999998,12.9664564679517,8.11911046028443,-21.0855669282361
7.09999999999998,12.3940672028236,8.74303599697616,-21.1371031997998
7.14999999999998,11.5307251840169,9.56851652159195,-21.0992417056088
7.19999999999998,10.4014964118007,10.6872125071788,-21.0887089189795
7.24999999999998,9.04644650656164,12.185707345513,-21.2321538520746
7.29999999999998,7.7566706484946,13.715050667893,-21.4717213163876
7.34999999999998,6.76038177140079,15.1341520254039,-21.8945337968047
7.39999999999998,6.0312483033821,16.3278485287709,-22.359096832153
7.44999999999998,5.20702570732874,17.2370367220204,-22.4440624293492
7.49999999999998,4.33770785046414,18.0499931457595,-22.3877009962237
7.54999999999998,2.98406244840736,18.6529173126319,-21.6369797610392
7.59999999999998,1.31861026814653,19.1940110133378,-20.5126212814843
7.64999999999998,-0.81336778602485,19.7909454257908,-18.9775776397659
7.69999999999998,-3.3532148239506,20.6672318314702,-17.3140170075196
7.74999999999998,-5.79444828695937,21.8040591534969,-16.0096108665376
7.79999999999998,-7.65876122850213,22.9130567864016,-15.2542955578995
7.84999999999998,-8.88430746236693,24.1878728958573,-15.3035654334904
7.89999999999998,-9.68992751703809,25.3725685634492,-15.6826410464111
7.94999999999998,-10.2913919089909,26.3058653627758,-16.0144734537849
7.99999999999998,-10.7683778827734,26.7437404280607,-15.9753625452873
8.04999999999998,-11.2324793725231,26.8915787772667,-15.6590994047436
8.09999999999998,-11.6921176530458,26.6914000701735,-14.9992824171277
8.14999999999998,-12.3791771914627,26.1574798461897,-13.7783026547269
8.19999999999998,-13.3373176079823,25.529130028478,-12.1918124204957
8.24999999999998,-14.5505857752348,24.9713953997845,-10.4208096245498
8.29999999999998,-15.7291287286896,24.7615020621467,-9.03237333345705
8.34999999999998,-16.8401137495399,24.8739695224439,-8.03385577290402
8.39999999999998,-18.0185475197414,25.3695264537071,-7.35097893396562
8.44999999999998,-19.1042950712803,25.8726319302567,-6.76833685897635
8.49999999999998,-19.9159702001826,25.9766652975039,-6.0606950973213
8.54999999999998,-20.4533490231273,25.6639595682417,-5.21061054511444
8.59999999999997,-20.990727846072,25.3512538389795,-4.36052599290757
8.64999999999998,-21.4774930005464,24.4755454374378,-2.99805243689146
8.69999999999997,-21.9822232500285,23.3332436656594,-1.35102041563096
8.74999999999998,-22.8936915075849,21.9335785479618,0.960112959623074
8.79999999999997,-24.0851948507966,20.7824713938202,3.30272345697635
8.84999999999997,-25.3493810090315,20.1351626329833,5.21421837604813
8.89999999999997,-27.1763083417614,20.377952394478,6.79835594728328
8.94999999999997,-28.7875696834361,20.6309453410175,8.15662434241858
8.99999999999997,-29.9595682057472,20.6234619750357,9.33610623071153
9.04999999999997,-30.5617257928274,20.2507440145291,10.3109817782983
9.09999999999997,-30.6226652339288,19.5038712293687,11.1187940045601
9.14999999999997,-30.2841029235338,18.3076176953594,11.9764852281744
9.19999999999997,-29.7512992532,16.7214972217298,13.0298020314703
9.24999999999997,-29.1984896207024,14.7585000933751,14.4399895273273
9.29999999999997,-29.0203336685495,12.6025518053977,16.4177818631517
9.34999999999997,-29.6578949489135,10.8850139785763,18.7728809703371
9.39999999999997,-30.6406187003354,9.63868435565909,21.0019343446762
9.44999999999997,-31.5068310748335,8.67856565699324,22.8282654178403
9.49999999999997,-32.0641783109283,7.91498984118497,24.1491884697433
9.54999999999997,-32.2974427021106,7.21822888593813,25.0792138161723
9.59999999999997,-32.027627460428,6.41163447188261,25.6159929885454
9.64999999999997,-31.2250524236768,5.300226602107,25.9248258215698
9.69999999999997,-30.2121462898404,4.05526759263057,26.1568786972098
9.74999999999997,-28.6098254644955,2.21064867677479,26.3991767877208
9.79999999999997,-26.88976852293,-0.113917446095604,27.0036859690256
9.84999999999997,-25.2825343394556,-2.70201284429786,27.9845471837534
9.89999999999997,-24.0251724443453,-4.96702686028648,28.9921993046318
9.94999999999997,-23.9632900550266,-6.47865154072874,30.4419415957554
9.99999999999997,-23.9745959273831,-7.68114901860823,31.6557449459913
10.05,-23.9247612463775,-8.66329058255319,32.5880518289307
10.1,-23.7267402440443,-9.45205341116298,33.1787936552073
10.15,-23.4088171081391,-10.1212620456502,33.5300791537893
10.2,-22.8425870960362,-10.7432486902668,33.585835786303
10.25,-22.0326726506586,-11.5215757445959,33.5542483952545
10.3,-20.7538632457686,-12.6811109515618,33.4349741973303
10.35,-18.8569399274194,-14.4203674326306,33.2773073600499
10.4,-16.5526001637505,-16.5211293915642,33.0737295553147
10.45,-14.294308009929,-18.5277107887018,32.8220187986307
10.5,-12.4192060943933,-20.1919855233176,32.6111916177109
10.55,-10.9823512510219,-21.4260346310586,32.4083858820805
10.6,-9.80007392742298,-22.2819927988712,32.0820667262942
10.65,-8.66617782777455,-22.7556909535534,31.4218687813279
10.7,-7.37727502424642,-23.0095678734325,30.3868428976789
10.75,-5.89811560985308,-23.1196677623482,29.0177833722013
10.8,-3.78590002572138,-23.3275774939399,27.1134775196613
10.85,-0.880736657721563,-23.9134439394486,24.7941805971701
10.9,2.83240353969083,-25.16918107689,22.3367775371992
10.95,5.73723179570479,-26.5124285427264,20.7751967470216
11,7.42340966698315,-27.8573399448754,20.4339302778922
11.05,8.51811083158065,-28.860054512054,20.3419436804733
11.1,9.3323905023597,-29.5532622076911,20.2208717053314
11.15,9.86876882421139,-29.7698454721571,19.9010766479457
11.2,10.2422488778109,-29.5954483790239,19.353199501213
11.25,10.4992121479129,-29.0635740157289,18.564361867816
11.3,10.7453991056722,-28.0790058194362,17.3336067137639
11.35,11.1626820032462,-26.8698725255031,15.707190522257
11.4,11.8598585590974,-25.5796228405621,13.7197642814648
11.45,12.9331711902059,-24.6296518253162,11.6964806351103
11.5,13.9777154145411,-24.2169242761275,10.2392088615863
11.55,15.0378372470549,-24.3090246139415,9.27118736688653
11.6,15.9368842901409,-24.4960367345261,8.55915244438518
11.65,16.4998658977672,-24.3517268973087,7.85186099954153
11.7,16.8323826576089,-23.9510377448343,7.11865508722534
11.75,16.8855562678908,-23.0455335209289,6.15997725303815
11.8,16.8150959497955,-21.9129194491491,5.09782349935368
11.85,16.6690110303731,-20.2942660159836,3.62525498561054
11.9,16.6804074875731,-18.5083827413955,1.82797525382244
11.95,17.1327558935387,-16.9070262744936,-0.22572961904506
12,18.471842707329,-16.3193197676885,-2.15252293964053
12.05,20.2677133670521,-16.4840887105093,-3.78362465654288
12.1,21.7222046249092,-16.6208481108879,-5.10135651402126
12.15,22.627776748982,-16.517910120422,-6.10986662855994
12.2,22.9577782000923,-16.1068030410495,-6.85097515904281
12.25,22.7736781164457,-15.3570552816143,-7.41662283483139
12.3,22.1808086991279,-14.2001653942553,-7.98064330487263
12.35,21.3580180316145,-12.6873519017012,-8.67066612991336
12.4,20.5839121079015,-10.9057354481577,-9.67817665974382
12.45,20.29624698492,-9.13959584671644,-11.1566511382036
12.5,20.8181067774536,-7.67589299576378,-13.1422137816897
12.55,21.7931263480992,-6.65873365528088,-15.1343926928183
12.6,22.6241098334297,-5.96246822129984,-16.6616416121299
12.65,23.1244767953185,-5.41657429363692,-17.7079025016815
12.7,23.1585852248896,-4.8349063780851,-18.3236788468045
12.75,22.8175337984742,-4.1249078851936,-18.6926259132806
12.7999999999999,22.0354736604392,-3.21561514008967,-18.8198585203495
12.8499999999999,20.9756147311755,-2.08864568987581,-18.8869690412996
12.8999999999999,19.4594399289449,-0.502205534073104,-18.9572343948718
12.9499999999999,18.0046187950025,1.46481393064944,-19.4694327256519
12.9999999999999,16.9075487282009,3.40621863103149,-20.3137673592324
13.0499999999999,16.6521371049709,4.86734261650805,-21.5194797214789
13.0999999999999,16.940251420084,5.96670532900142,-22.9069567490853
13.1499999999999,17.1825854603984,6.89383639390204,-24.0764218543004
13.1999999999999,17.2705827828613,7.65917877732202,-24.9297615601833
13.2499999999999,17.1935499957946,8.3079359307421,-25.5014859265367
13.2999999999999,16.8703663942725,8.87946897281812,-25.7498353670906
13.3499999999999,16.2295233255159,9.51910521901455,-25.7486285445305
13.3999999999999,15.2816221226311,10.4082451736377,-25.6898672962688
13.4499999999999,13.9113631606615,11.7348524818528,-25.6462156425142
13.4999999999999,12.2786800272823,13.3686478022353,-25.6473278295176
13.5499999999999,10.6332231666014,15.0795129358455,-25.7127361024468
13.5999999999999,9.24119897121967,16.6358531543019,-25.8770521255216
13.6499999999999,8.19631095120524,17.9147127150919,-26.1110236662972
13.6999999999999,7.33529533837745,18.8793038898811,-26.2145992282585
13.7499999999999,6.43894737704583,19.5794576664586,-26.0184050435045
13.7999999999999,5.07594737117452,19.9999260369393,-25.0758734081138
13.8499999999999,3.71294736530321,20.42039440742,-24.1333417727232
13.8999999999999,1.61080678729469,20.869404729618,-22.4802115169127
13.9499999999999,-1.15006628416379,21.6311600503748,-20.4810937662111
13.9999999999999,-4.22807302877601,22.8023395791333,-18.5742665503572
14.0499999999999,-6.56719723389597,23.9805647252629,-17.413367491367
14.0999999999999,-8.00513940004172,25.2530771513129,-17.2479377512711
14.1499999999999,-9.00310134816302,26.4614808595264,-17.4583795113634
14.1999999999999,-9.75989575829336,27.4139997896166,-17.6541040313233
14.2499999999999,-10.3173981955684,27.9530061872141,-17.6356079916457
14.2999999999999,-10.7319299557759,28.0570181663277,-17.3250882105518
14.3499999999999,-11.1019357612621,27.6902710812174,-16.5883353199553
14.3999999999999,-11.5540114603551,27.060329191913,-15.5063177315579
14.4499999999999,-12.2080601957528,26.2095640364762,-14.0015038407234
14.4999999999999,-13.1883894560088,25.3073928550611,-12.1190033990523
14.5499999999999,-14.332837657139,24.7043273082591,-10.37148965112
14.5999999999999,-15.429119829722,24.5628070314171,-9.13368720169511
14.6499999999999,-16.5687928524325,24.8710439972496,-8.30225114481701
14.6999999999999,-17.6642585969358,25.3352456136689,-7.67098701673309
14.7499999999999,-18.3751218391559,25.3504631756747,-6.9753413365188
14.7999999999999,-19.0237909964337,25.2930755095497,-6.26928451311603
14.8499999999999,-19.305375853571,24.5988600896008,-5.29348423602978
14.8999999999999,-19.4922939374493,23.7135729970811,-4.22127905963183
14.9499999999999,-19.7272349517108,22.3838683589819,-2.656633407271
14.9999999999999,-20.2694242028895,20.86379500548,-0.594370802590495
15.0499999999999,-21.1751973886258,19.4571377102104,1.71805967841539
15.0999999999999,-22.3912868608173,18.6859296050403,3.70535725577699
15.1499999999999,-24.2151295193457,18.8665098558265,5.3486196635192
15.1999999999999,-25.8457977797824,19.1159667452177,6.72983103456478
15.2499999999999,-27.0401117619434,19.147301539709,7.89281022223445
15.2999999999999,-27.6018499434805,18.8015364909635,8.80031345251711
15.3499999999999,-27.6877488023215,18.1266456034406,9.56110319888093
15.3999999999999,-27.3482067346994,17.0881784400534,10.2600282946461
15.4499999999999,-26.6875634028283,15.5492293761937,11.1383340266346
15.4999999999999,-26.03444893233,13.6698297861307,12.3646191461992
15.5499999999999,-25.7755719091662,11.6993662314548,14.0762056777115
15.5999999999999,-26.2212274429678,9.99835655427227,16.2228708886955
15.6499999999999,-27.1463234197174,8.7422417014182,18.4040817182992
15.6999999999999,-28.027225010715,7.80513267104045,20.2220923396745
15.7499999999999,-28.6362081403208,7.09544130443684,21.5407668358839
