"Time [ms]","Current(PhaseA) [A]","Current(PhaseB) [A]","Current(PhaseC) [A]"
0,0,0,0
0.05,8.87041309212987e-06,0.468299264698967,-0.46830813511206
0.1,8.17577612377579e-06,0.939400918800753,-0.939409094576878
0.15,7.4811391554217e-06,1.41050257290254,-1.4105100540417
0.2,6.78650218706761e-06,1.88160422700432,-1.88161101350651
0.25,6.09186521871353e-06,2.35270588110611,-2.35271197297133
0.3,5.39722825035944e-06,2.82380753520789,-2.82381293243615
0.35,4.70259128200535e-06,3.29490918930968,-3.29491389190097
0.4,4.00795431365126e-06,3.76601084341147,-3.76601485136579
0.45,0.509879862034768,4.49183878372947,-5.00171864576424
0.5,1.16773000442095,5.41334441420909,-6.58107441863004
0.55,1.61101322350692,6.31130876140432,-7.92232198491124
0.6,1.83621676098432,7.11494620926791,-8.95116297025222
0.65,1.71738676857009,7.86911125350226,-9.58649802207234
0.7,1.19029066568393,8.70719787816457,-9.8974885438485
0.75,0.381168793325743,9.75148304952145,-10.1326518428472
0.8,-0.67647953227543,11.3703710472916,-10.6938915150162
0.85,-1.53126181006197,13.2306556531464,-11.6993938430844
0.9,-2.17783802264915,15.0304395445114,-12.8526015218623
0.95,-2.92932865401795,16.6331620349984,-13.7038333809805
1,-4.01748529942891,18.0088533846176,-13.9913680851887
1.05,-5.56911410212134,19.2132267322158,-13.6441126300945
1.1,-7.60626046905413,20.4788635698677,-12.8726031008136
1.15,-9.76268038630932,21.9756588201101,-12.2129784338007
1.2,-11.6311070756514,23.4774503297604,-11.846343254109
1.25,-13.0959207539847,24.7301641553528,-11.6342434013681
1.3,-13.9549706149495,26.3217140256928,-12.3667434107434
1.35,-14.8466581863422,27.7294415499724,-12.8827833636301
1.4,-15.8262930769463,28.8543682101531,-13.0280751332068
1.45,-16.9658763821358,29.5644363751923,-12.5985599930564
1.5,-18.68798901801,29.9112868331436,-11.2232978151337
1.55,-20.6726326152465,30.2382816515503,-9.56564903630381
1.6,-22.6225109093508,30.6726899227027,-8.05017901335181
1.65,-24.313158109872,31.3264731735887,-7.01331506371667
1.7,-25.982728658174,32.1851200902309,-6.20239143205688
1.75,-27.7047080189244,33.2054080391574,-5.50070002023298
1.8,-29.1732473996614,33.5369215346495,-4.3636741349881
1.85,-30.5788222909818,33.6973162832834,-3.11849399230154
1.9,-32.1326938228659,33.2111074176261,-1.07841359476013
1.95,-33.7983816302753,32.2772318078644,1.5211498224109
2,-35.7988919576242,30.8297883459941,4.96910361163007
2.05,-38.0242252869372,29.9456324192559,8.07859286768143
2.1,-40.3082503497594,29.8299379215623,10.4783124281971
2.15,-42.7020707418498,30.2041177495305,12.4979529923193
2.2,-44.3754292708624,30.0798127074458,14.2956165634166
2.25,-45.0045878124077,29.1243933732885,15.8801944391193
2.3,-44.9513877884812,27.4410611232973,17.510326665184
2.35,-44.4904323629501,25.0391277059474,19.4513046570028
2.4,-43.9956852010251,21.9638246984182,22.031860502607
2.45,-44.1358559856163,18.6486656486916,25.4871903369247
2.5,-45.4775225167982,16.162114020125,29.3154084966731
2.55,-47.1057461961138,14.4032422676945,32.7025039284193
2.6,-48.0634243027194,13.0033785895963,35.0600457131231
2.65,-48.1131142441763,11.6999482022793,36.4131660418971
2.7,-47.3111366184166,10.1575351823034,37.1536014361133
2.75,-45.7388716904707,8.1702457645292,37.5686259259415
2.8,-43.4923869718925,5.55691523559398,37.9354717362985
2.85,-40.9431361850604,1.88053195603469,39.0626042290257
2.9,-38.4769889421626,-2.33336795570057,40.8103568978632
2.95,-36.8632997836418,-6.12299777902014,42.986297562662
3,-35.9887885550742,-8.70246884720584,44.69125740228
3.05,-35.3039381278902,-10.4317881261992,45.7357262540895
3.1,-34.5207447888388,-11.6328430600062,46.153587848845
3.15,-33.6050757038858,-12.5795973094412,46.184673013327
3.2,-32.4526766286549,-13.5582568629538,46.0109334916087
3.25,-30.7302576510595,-14.925690582849,45.6559482339085
3.3,-27.8485476859779,-17.1890210791621,45.03756876514
3.35,-24.0765356765386,-20.3652797539226,44.4418154304611
3.4,-20.2554625323047,-23.2278825239012,43.4833450562059
3.45,-17.0836806653559,-25.2549509170518,42.3386315824077
3.5,-14.4973904263329,-26.5807906834204,41.0781811097533
3.55,-12.3853439135876,-27.1716031119856,39.5569470255732
3.6,-10.257183087796,-27.31006440565,37.5672474934461
3.65,-7.69363884081914,-27.2561636053324,34.9498024461516
3.7,-4.4372225383428,-27.3822620989066,31.8194846372495
3.75,0.578553966715879,-28.6306634200104,28.0521094532945
3.8,5.17976591987347,-30.7106888793633,25.5309229594898
3.85,7.76267163990953,-32.1033625356752,24.3406908957656
3.9,9.06784913135597,-32.6279160769865,23.5600669456305
3.95,9.72300507346079,-32.3865843724602,22.6635792989994
4,10.0401969601098,-31.4916678127114,21.4514708526016
4.05,10.2289122086066,-30.1356636174896,19.9067514088831
4.1,10.5183426146691,-28.3147646926408,17.7964220779716
4.15,11.0906768450684,-26.3277968736058,15.2371200285374
4.2,12.0570466605608,-24.5484318022387,12.4913851416779
4.25,13.0051609096971,-23.6561899385674,10.6510290288702
4.3,13.7451136629322,-23.3693816305061,9.62426796757387
4.35,14.1007991799333,-22.8980249362654,8.79722575633215
4.4,14.1117101479101,-21.9644933800047,7.85278323209458
4.45,13.7784105173187,-20.396861520699,6.61845100338039
4.5,13.2778534242684,-18.3604409579529,5.08258753368457
4.55,12.6930046135413,-15.8603455937903,3.16734098024903
4.6,12.9528234363929,-13.9329174160451,0.980093979652152
4.65,14.6832718853299,-13.5879655022736,-1.09530638305629
4.7,16.3053495799215,-13.5738474661078,-2.73150211381374
4.75,17.1072886079467,-13.2864271127912,-3.82086149515549
4.8,17.0272956898443,-12.5377443082689,-4.48955138157534
4.85,16.2045193173935,-11.2697991814132,-4.93472013598029
4.9,14.9533211329428,-9.51764984437178,-5.43567128857102
4.95,13.8108189852281,-7.46386594607632,-6.34695303915177
5,13.7620054332444,-5.75852313411298,-8.00348229913146
5.05,14.9243539083284,-4.68420127625518,-10.2401526320732
5.1,16.096417477773,-4.07077161501468,-12.0256458627583
5.15,16.7225855224508,-3.55723793509276,-13.165347587358
5.2,16.6990346900425,-2.92821092936211,-13.7708237606804
5.25,16.105888651413,-2.07964933389093,-14.026239317522
5.3,14.7630335875538,-0.798674637012738,-13.964358950541
5.35,13.2345025959765,0.993761273683087,-14.2282638696596
5.4,12.2045002740116,2.98349105458405,-15.1879913285956
5.44999999999999,12.2940128690742,4.55623863795303,-16.8502515070272
5.49999999999999,12.8190608162149,5.78656385383639,-18.6056246700513
5.54999999999999,13.1516447317486,6.83328418122501,-19.9849289129736
5.59999999999999,13.1768318929136,7.67721478273575,-20.8540466756494
5.64999999999999,12.8198595096989,8.45969032798296,-21.2795498376818
5.69999999999999,12.0280904943364,9.38862851829801,-21.4167190126344
5.74999999999999,10.7698418777181,10.8038033744218,-21.5736452521399
5.79999999999999,9.14073791017437,12.7949595432759,-21.9356974534502
5.84999999999999,7.66677544894187,14.8210659263315,-22.4878413752733
5.89999999999999,6.56019664577719,16.6462995054226,-23.2064961511999
5.94999999999999,5.57035767782134,18.1156210392961,-23.6859787171175
5.99999999999999,4.4397313911988,19.3657123358651,-23.8054437270639
6.04999999999999,2.63568274801791,20.3295072529294,-22.9651900009473
6.09999999999999,0.140681335614027,21.2928205136208,-21.4335018492349
6.14999999999999,-3.23668855042544,22.6802703187179,-19.4435817682925
6.19999999999999,-6.66035423207687,24.4983533532234,-17.8379991211466
6.24999999999999,-9.13796374547081,26.2140179130767,-17.0760541676058
6.29999999999999,-10.6301491570803,28.045225400656,-17.4150762435757
6.34999999999999,-11.7434396498138,29.5437612898789,-17.8003216400652
6.39999999999999,-12.5974487136253,30.4104161685156,-17.8129674548903
6.44999999999999,-13.3706006261955,30.7000853993577,-17.3294847731623
6.49999999999999,-14.2167722852478,30.4262363885222,-16.2094641032744
6.54999999999999,-15.4548617938647,29.8039120450344,-14.3490502511696
6.59999999999999,-17.1038254505228,29.1167823367345,-12.0129568862118
6.64999999999999,-18.6984410963122,28.9222370131048,-10.2237959167925
6.69999999999999,-20.1902345320528,29.2313623860442,-9.04112785399149
6.74999999999999,-21.7396032966504,29.9626108225039,-8.22300752585341
6.79999999999999,-22.9155174919295,30.2657684370087,-7.35025094507911
6.84999999999999,-23.9059700159088,30.1827686099609,-6.27679859405205
6.89999999999999,-24.6091941345543,29.452233602566,-4.84303946801168
6.94999999999999,-25.5295890502016,28.1821476675717,-2.65255861736997
6.99999999999998,-26.8972124341355,26.5264919780387,0.370720456096797
7.04999999999998,-28.7299779781076,25.0480451900591,3.68193278804849
7.09999999999998,-30.8681200038957,24.6302779739387,6.23784202995702
7.14999999999998,-33.227080441729,24.9355399107267,8.29154053100224
7.19999999999998,-34.9135693180827,24.9227392482601,9.99083006982272
7.24999999999998,-35.6996152494447,24.295706615763,11.4039086336817
7.29999999999998,-35.6889786054622,23.0318802301747,12.6570983752875
7.34999999999998,-35.1264948229728,21.08491785416,14.0415769688128
7.39999999999998,-34.4074534830563,18.4328634062765,15.9745900767798
7.44999999999998,-34.203113578094,15.4194186225862,18.7836949555077
7.49999999999998,-35.2805240730529,13.0690863011565,22.2114377718963
7.54999999999998,-36.7427745123111,11.4086752350555,25.3340992772555
7.59999999999998,-37.7604178624041,10.1809009666659,27.5795168957383
7.64999999999998,-38.1039985072077,9.16291576815407,28.9410827390536
7.69999999999998,-37.6069224969029,8.0001789620555,29.6067435348474
7.74999999999998,-36.2634005149577,6.34025306312551,29.9231474518321
7.79999999999998,-34.4820150245374,4.17324574933488,30.3087692752025
7.84999999999998,-32.3364285188115,1.04632469312166,31.2901038256899
7.89999999999998,-30.2366498695912,-2.65283514902946,32.8894850186206
7.94999999999998,-29.13764752613,-5.63861025253712,34.7762577786671
7.99999999999998,-28.6959782526913,-7.67754795751138,36.3735262102026
8.04999999999998,-28.3276285517097,-9.17217448842588,37.4998030401356
8.09999999999998,-27.8642318053179,-10.193215249671,38.0574470549889
8.14999999999998,-27.1859591113474,-11.0259956400867,38.2119547514342
8.19999999999998,-26.2178698486211,-11.9625813577935,38.1804512064146
8.24999999999998,-24.6826315986909,-13.4030065394824,38.0856381381733
8.29999999999998,-22.1251466288262,-15.788804318277,37.9139509471031
8.34999999999998,-18.8189500268843,-18.7836017269436,37.6025517538279
8.39999999999998,-15.812610353856,-21.277775307788,37.090385661644
8.44999999999998,-13.423089923594,-23.0979652059102,36.5210551295042
8.49999999999998,-11.5776863667612,-24.2964634521784,35.8741498189396
8.54999999999998,-9.93193295660063,-24.8468628734286,34.7787958300292
8.59999999999997,-8.06922355896356,-25.0590079585829,33.1282315175464
8.64999999999998,-5.44708484897623,-25.2246227476289,30.6717075966051
8.69999999999997,-1.61336613019547,-26.0114765736405,27.624842703836
8.74999999999998,3.55856580725149,-27.8976796275102,24.3391138202588
8.79999999999997,6.88070225078099,-29.912103412053,23.0314011612719
8.84999999999997,8.75276318691397,-31.3178477865545,22.5650845996405
8.89999999999997,9.91120811123434,-32.0174082268825,22.1062001156482
8.94999999999997,10.5764409664351,-31.948085364113,21.3716443976779
8.99999999999997,11.0481608150881,-31.4080382388901,20.359877423802
9.04999999999997,11.4753488040045,-30.2619193084691,18.7865705044646
9.09999999999997,12.0982507552885,-28.705068427997,16.6068176727085
9.14999999999997,13.0791611405133,-27.0242418291705,13.9450806886572
9.19999999999997,14.3291357382773,-25.9372250725059,11.6080893342286
9.24999999999997,15.4863437523789,-25.6685076609155,10.1821639085365
9.29999999999997,16.4521345666574,-25.7428782664505,9.29074369979311
9.34999999999997,17.0001105499566,-25.4386394055199,8.4385288555632
9.39999999999997,17.0793055317296,-24.4406025368288,7.36129700509913
9.44999999999997,16.992694963644,-22.9959773905124,6.00328242686835
9.49999999999997,16.727640901422,-20.9616624089408,4.23402150751882
9.54999999999997,16.6703326173009,-18.5583905335888,1.88805791628795
9.59999999999997,17.8465945465526,-17.1217739575872,-0.724820588965453
9.64999999999997,20.0803178725578,-17.1009225547308,-2.97939531782692
9.69999999999997,21.8457817329833,-17.1248334756921,-4.7209482572913
9.74999999999997,22.6290176028494,-16.73617634866,-5.89284125418948
9.79999999999997,22.529471963741,-15.8372799572852,-6.69219200645575
9.84999999999997,21.7941951538605,-14.4101854156522,-7.38400973820819
9.89999999999997,20.6237873331556,-12.3944672232113,-8.22932010994434
9.94999999999997,19.6602321197807,-10.0055671061844,-9.65466501359639
9.99999999999997,20.0991619779456,-8.04344101127729,-12.0557209666683
10.05,21.4981999063584,-6.78979737077097,-14.7084025355874
10.1,22.6503748480198,-5.96651296586408,-16.6838618821558
10.15,23.2032964488633,-5.31019318591797,-17.8931032629453
10.2,22.9894256048639,-4.50055347142914,-18.4888721334347
10.25,22.2206992988373,-3.43972149082242,-18.7809778080148
10.3,20.7095582363577,-1.87071263454878,-18.838845601809
10.35,18.9311090335484,0.328292837931301,-19.2594018714797
10.4,17.6234410179994,2.90949998044162,-20.532940998441
10.45,17.3892043283296,4.85334110564388,-22.2425454339735
10.5,17.6893180654874,6.27651882668729,-23.9658368921746
10.55,17.8643948522585,7.37466853598081,-25.2390633882393
10.6,17.7915036899052,8.26217186428079,-26.0536755541861
10.65,17.3613097569674,9.04838178605056,-26.4096915430179
10.7,16.5154573168006,9.99958099951272,-26.5150383163133
10.75,15.0875485619164,11.503739141315,-26.5912877032315
10.8,13.0801200219466,13.6749492333653,-26.755069255312
10.85,11.0105221619561,15.9921485323415,-27.0026706942976
10.9,9.37207017530491,17.9955190783946,-27.3675892536995
10.95,8.19806901741132,19.5184650527916,-27.716534070203
11,7.00522910718231,20.5548511917931,-27.5600802989754
11.05,5.46439067539656,21.3289476376107,-26.7933383130073
11.1,3.23714677531553,22.0343950250505,-25.271541800366
11.15,-0.0574506833772509,23.0618368744359,-23.0043861910586
11.2,-4.35436745229211,24.8899066152427,-20.5355391629505
11.25,-7.5436214269254,26.6977666439656,-19.1541452170401
11.3,-9.33948184480948,28.5276848090687,-19.1882029642592
11.35,-10.6790602255859,30.0538701002193,-19.3748098746335
11.4,-11.6714927113478,31.0085493479137,-19.3370566365659
11.45,-12.4441072584638,31.3526207911453,-18.9085135326816
11.5,-13.0925197404806,30.929410778846,-17.8368910383653
11.55,-13.9620464520959,30.0730624568681,-16.1110160047722
11.6,-15.2354039209669,28.9162492902202,-13.6808453692533
11.65,-16.7549462832947,28.210069824357,-11.4551235410623
11.7,-18.1583563483864,28.1438006030816,-9.98544425469525
11.75,-19.5987334606205,28.6438219538546,-9.04508849323417
11.8,-20.7954842740546,29.0148887048238,-8.21940443076911
11.85,-21.4611554049456,28.5821381684728,-7.12098276352719
11.9,-22.0134723350788,27.9332496577066,-5.91977732262785
11.95,-22.4240378173579,26.5264369569162,-4.10239913955835
12,-23.2050355837897,24.6546060360321,-1.44957045224246
12.05,-24.651430061903,22.8769407902686,1.77448927163438
12.1,-26.7187353043603,22.2739971020182,4.44473820234213
12.15,-29.0849703756729,22.5271901717815,6.55778020389146
12.2,-30.8179021976763,22.5580980720292,8.2598041256471
12.25,-31.6267949886631,22.0330371853465,9.59375780331662
12.3,-31.551963999733,20.8761544466413,10.6758095530917
12.35,-30.9275360062486,19.1149215761037,11.8126144301448
12.4,-30.0124504756865,16.6705418782247,13.3419085974618
12.45,-29.5983330603011,13.8273717103932,15.7709613499079
12.5,-30.6200295585805,11.5851230949049,19.0349064636756
12.55,-32.0561005805137,10.0197387795279,22.0363618009857
12.6,-33.1184765947925,8.89957281678232,24.2189037780102
12.65,-33.5589860824359,8.00207165785018,25.5569144245858
12.7,-33.1566193478839,6.96871568812705,26.1879036597568
12.75,-31.8924498580726,5.42330226340555,26.469147594667
12.7999999999999,-30.2717256975289,3.50124390171212,26.7704817958168
12.8499999999999,-28.2287442679368,0.63815240965426,27.5905918582825
12.8999999999999,-26.3421657845984,-2.77844880777044,29.1206145923688
12.9499999999999,-25.5281741146646,-5.41741961454277,30.9455937292073
12.9999999999999,-25.3299561970944,-7.24456136707102,32.5745175641655
13.0499999999999,-25.15594662791,-8.59569156967981,33.7516381975898
13.0999999999999,-24.835394908242,-9.56289301546028,34.3982879237024
13.1499999999999,-24.2594129872937,-10.3553841418239,34.6147971291177
13.1999999999999,-23.3540404026406,-11.2797872076183,34.633827610259
13.2499999999999,-21.8279057198324,-12.7642434524432,34.5921491722755
13.2999999999999,-19.3357587081069,-15.1604140979272,34.4961728060341
13.3499999999999,-16.3635960476578,-17.9700919529818,34.3336880006397
13.3999999999999,-13.7789747061741,-20.3096621731914,34.0886368793656
13.4499999999999,-11.7812032248902,-22.0483768182187,33.8295800431089
13.4999999999999,-10.239813613506,-23.149617008487,33.389430621993
13.5499999999999,-8.72041362453799,-23.7067276824708,32.4271413070087
13.5999999999999,-6.76569261280082,-23.9987967707898,30.7644893835906
13.6499999999999,-4.15001408715663,-24.3896713438027,28.5396854309594
13.6999999999999,0.0185566329233965,-25.5485133679423,25.529956735019
13.7499999999999,4.85381377764273,-27.5443547787181,22.6905410010753
13.7999999999999,7.56540816023386,-29.4937972405201,21.9283890802863
13.8499999999999,9.20331444748228,-30.8984702673289,21.6951558198465
13.8999999999999,10.3270652682009,-31.7229243493218,21.3958590811209
13.9499999999999,11.0535656416275,-31.8275853606979,20.7740197190704
13.9999999999999,11.5981334260707,-31.3611271314914,19.7629937054207
14.0499999999999,12.1452360071577,-30.3138778868845,18.1686418797268
14.0999999999999,12.9104998430548,-28.862413015376,15.9519131723212
14.1499999999999,14.1254819619209,-27.380621955712,13.2551399937911
14.1999999999999,15.4342508355657,-26.5936901517009,11.1594393161352
14.2499999999999,16.6781414497417,-26.619205595807,9.9410641460653
14.2999999999999,17.7234248052825,-26.7948506345737,9.07142582929121
14.3499999999999,18.3478140284016,-26.5301141275854,8.18230009918383
14.3999999999999,18.5111701664749,-25.5443777502127,7.03320758373783
14.4499999999999,18.5447793603261,-24.154951077197,5.61017171687094
14.4999999999999,18.4764334347132,-22.0769499674762,3.60051653276312
14.5499999999999,18.8742889813055,-19.8412428075099,0.966953826204458
14.5999999999999,20.4535005010712,-18.687559145982,-1.76594135508919
14.6499999999999,22.7709472926201,-18.7751053225031,-3.99584197011701
14.6999999999999,24.5683433469323,-18.8154961173279,-5.75284722960435
14.7499999999999,25.3789496868637,-18.4012902878565,-6.97765939900717
14.7999999999999,25.2515625392522,-17.4139321130295,-7.83763042622274
14.8499999999999,24.5646266268008,-15.9084992120828,-8.65612741471803
14.8999999999999,23.4610180722975,-13.7459169655816,-9.71510110671587
14.9499999999999,22.719512090782,-11.2518960310372,-11.4676160597448
14.9999999999999,23.2834142002877,-9.14706645747044,-14.1363477428173
15.0499999999999,24.6948153203146,-7.79568909116612,-16.8991262291485
15.0999999999999,25.8304798055119,-6.87057865907206,-18.9599011464399
15.1499999999999,26.3549432786367,-6.14012666962333,-20.2148166090134
15.1999999999999,26.0688190575699,-5.26248991968488,-20.8063291378851
15.2499999999999,25.0999304429526,-4.00798385102323,-21.0919465919294
15.2999999999999,23.6092488863437,-2.39779745526453,-21.2114514310792
15.3499999999999,21.7700166079294,0.0311765337893473,-21.8011931417187
15.3999999999999,20.2621743132673,2.87578360500652,-23.1379579182738
15.4499999999999,19.8592860762534,5.01945458394018,-24.8787406601936
15.4999999999999,20.0076139827715,6.54922381534734,-26.5568377981188
15.5499999999999,20.1067680721112,7.71370637934137,-27.8204744514527
15.5999999999999,19.9531265547061,8.60523159154546,-28.5583581462515
15.6499999999999,19.5003319974146,9.3945381485084,-28.8948701459229
15.6999999999999,18.6769469665193,10.3051485410827,-28.9820955076019
15.7499999999999,17.2704364675839,11.7569776473613,-29.0274141149452
