"Time [ms]","Current(PhaseA) [A]","Current(PhaseB) [A]","Current(PhaseC) [A]"
0,0,0,0
0.05,3.8372345304602e-06,0.475910906485085,-0.475914743719615
0.1,-1.33044132087998e-06,0.95477919064219,-0.954777860200868
0.15,-6.49811717222015e-06,1.43364747479929,-1.43364097668212
0.2,-1.16657930235603e-05,1.9125157589564,-1.91250409316337
0.25,-1.68334688749005e-05,2.3913840431135,-2.39136720964463
0.3,-2.20011447262407e-05,2.87025232727061,-2.87023032612588
0.35,-2.71688205775809e-05,3.34912061142771,-3.34909344260713
0.4,-3.2336496428921e-05,3.82798889558482,-3.82795655908838
0.45,0.319802515106359,4.65592829726651,-4.97573081237287
0.5,0.85754480368995,5.65826630844421,-6.51581111213416
0.55,1.27635933864129,6.5757237183692,-7.85208305701049
0.6,1.4321857300102,7.40223814332598,-8.83442387333617
0.65,1.15921491058214,8.198857570377,-9.35807248095914
0.7,0.456356204314732,9.087920766429,-9.54427697074373
0.75,-0.458744399400717,10.1519335537966,-9.69318915439587
0.8,-1.39178468995417,11.7014857491307,-10.3097010591766
0.85,-2.06630851298257,13.5083843262536,-11.4420758132711
0.9,-2.62585055383564,15.2642530062342,-12.6384024523986
0.95,-3.25080228469594,16.8103067688166,-13.5595044841207
1,-4.09639993646036,18.0526073257233,-13.9562073892629
1.05,-5.23246656510027,19.0708163745719,-13.8383498094716
1.1,-6.76339216075569,20.105904661687,-13.3425125009313
1.15,-8.5952573187217,21.3598809582162,-12.7646236394945
1.2,-10.5181909427927,22.8014521543289,-12.2832612115362
1.25,-12.3877875920465,24.2920903159643,-11.9043027239177
1.3,-13.8350440346245,26.304870689548,-12.4698266549235
1.35,-15.2315582652311,28.099525607996,-12.8679673427649
1.4,-16.6594714138753,29.5726913214707,-12.9132199075954
1.45,-18.2211773673017,30.6293142884993,-12.4081369211976
1.5,-20.3204183038603,31.3137622093855,-10.9933439055252
1.55,-22.750820362296,32.0321612396572,-9.28134087736126
1.6,-25.2611831648809,32.8799123300008,-7.61872916511997
1.65,-27.5463738655921,33.8832047109157,-6.33683084532359
1.7,-29.6165947129523,34.8877318344034,-5.27113712145103
1.75,-31.4502836356679,35.715914368688,-4.26563073302009
1.8,-33.1117975713988,36.208417056572,-3.09661948517313
1.85,-34.4580882477849,35.9061357729103,-1.44804752512527
1.9,-35.8043789241711,35.6038544892486,0.200524434922596
1.95,-37.3236364887892,34.3271543505954,2.99648213819389
2,-39.1058464887268,32.7116728953642,6.39417359336259
2.05,-40.9674787908731,31.4934224515919,9.47405633928113
2.1,-42.693171580164,31.0477821474382,11.6453894327259
2.15,-44.5070941831539,31.0893353884634,13.4177587946904
2.2,-45.8546550974085,30.7945434271055,15.0601116703032
2.25,-46.6375191260604,29.9763374254481,16.6611817006123
2.3,-47.0008841555196,28.531920939929,18.4689632155906
2.35,-47.0867224947403,26.3391779489687,20.7475445457715
2.4,-47.0053664874751,23.3738863416779,23.6314801457973
2.45,-46.9085332914628,19.7470215215158,27.1615117699471
2.5,-47.1605465295011,16.6798001237645,30.4807464057366
2.55,-47.5356211479026,14.5379531972735,32.9976679506291
2.6,-47.7785746538442,12.8838889396827,34.8946857141614
2.65,-47.715406511967,11.5168498494897,36.1985566624774
2.7,-47.1614976683659,10.116331916733,37.0451657516329
2.75,-45.6931289177222,8.16607032477569,37.5270585929465
2.8,-43.6961051639205,5.62408274590092,38.0720224180196
2.85,-40.9914854783536,1.89218951211451,39.0992959662391
2.9,-38.1399407810392,-2.48468038750486,40.6246211685441
2.95,-36.1779024946075,-6.43570414448072,42.6136066390882
3,-35.1907083300116,-9.05232359025131,44.243031920263
3.05,-34.3242756055774,-10.8458924515895,45.1701680571669
3.1,-33.2059924266073,-12.175872397014,45.3818648236212
3.15,-31.7236358190348,-13.3030259927813,45.026661811816
3.2,-29.650015882114,-14.5066513945841,44.1566672766981
3.25,-26.7928100100542,-16.22765658264,43.0204665926941
3.3,-23.1428484151564,-18.7713993243514,41.9142477395077
3.35,-19.004237261353,-22.0877280320939,41.0919652934469
3.4,-15.5600322332852,-24.9316877268669,40.4917199601522
3.45,-13.2832593357151,-26.7040052647641,39.9872646004792
3.5,-11.6202198137578,-27.763699709192,39.3839195229498
3.55,-10.2387798277965,-28.1081387936687,38.3469186214652
3.6,-8.73071822167394,-28.0224127697239,36.7531309913979
3.65,-6.90307081770161,-27.7102828514714,34.6133536691731
3.7,-4.38605550843389,-27.512962270045,31.8990177784789
3.75,-0.804480280250912,-28.0808501469696,28.8853304272205
3.8,2.6954284916178,-29.5060878309828,26.8106593393649
3.85,5.13248034982521,-30.6864822148574,25.5540018650322
3.9,6.61347566751121,-31.2944101510923,24.6809344835811
3.95,7.53484139230344,-31.215053820119,23.6802124278156
4,8.19009112265944,-30.5717707476851,22.3816796250256
4.05,8.82751268226972,-29.3443785830873,20.5168659008176
4.1,9.70868495872791,-27.9301716986278,18.2214867398999
4.15,11.2131214921221,-26.5576436974893,15.3445222053673
4.2,13.545413011676,-25.6941806848192,12.1487676731433
4.25,15.6139184456428,-25.3701444992626,9.75622605361976
4.3,16.812362266283,-25.1894482900874,8.37708602380438
4.35,17.3658356731966,-24.7263154360904,7.36047976289376
4.4,17.3912661861396,-23.7630161288934,6.37174994275382
4.45,17.0408482630986,-22.2063047804042,5.16545651730557
4.5,16.5196421571778,-20.1960923440571,3.6764501868793
4.55,16.1776468311844,-17.8470451600292,1.66939832884472
4.6,16.8210312940347,-15.9277489710497,-0.893282322984914
4.65,18.1764176442226,-15.2686657945658,-2.90775184965679
4.7,19.3039171640176,-15.0348104335278,-4.26910673048963
4.75,19.8837919103324,-14.7470584305832,-5.1367334797493
4.8,19.8468974137946,-14.1034627310499,-5.7434346827447
4.85,19.355526184705,-13.1026512420999,-6.25287494260504
4.9,18.3437189165015,-11.5441266553226,-6.799592261179
4.95,17.324356630617,-9.43781539196219,-7.88654123865474
5,16.9643634741478,-7.24082518063098,-9.72353829351676
5.05,17.3211402080359,-5.77665342222625,-11.5444867858097
5.1,17.8658297539642,-4.90567528868705,-12.9601544652772
5.15,18.0802458604421,-4.2369904193553,-13.8432554410869
5.2,17.7504556150869,-3.46614455262598,-14.2843110624609
5.25,16.9887066708687,-2.548828173338,-14.4398784975307
5.3,15.5091277138973,-1.17740990395525,-14.331717809942
5.35,13.7778559389553,0.733347259497054,-14.5112031984523
5.4,12.4932361980867,2.84074990816664,-15.3339861062533
5.44999999999999,12.3250777278664,4.53482320833188,-16.8599009361983
5.49999999999999,12.644419440506,5.86917304480313,-18.5135924853092
5.54999999999999,12.8260495985174,6.98208826893689,-19.8081378674543
5.59999999999999,12.5752528403606,7.92975155883961,-20.5050043992002
5.64999999999999,11.7788249553745,8.88643020676712,-20.6652551621416
5.69999999999999,10.3694060154705,10.0202104610297,-20.3896164765002
5.74999999999999,8.42954279602447,11.6551831305275,-20.084725926552
5.79999999999999,6.57456366221426,13.7313283968434,-20.3058920590577
5.84999999999999,5.29562413622528,15.6942326308306,-20.9898567670559
5.89999999999999,4.44045945495626,17.4445584412053,-21.8850178961616
5.94999999999999,3.64051241116176,18.8039305602404,-22.4444429714022
5.99999999999999,2.78630556317994,19.9676402715349,-22.7539458347149
6.04999999999999,1.5339099182185,20.7192323571946,-22.2531422754131
6.09999999999999,-0.121831295702851,21.3468751611569,-21.225043865454
6.14999999999999,-2.41946525945388,22.213926584394,-19.7944613249401
6.19999999999999,-4.95554483292578,23.5174778869374,-18.5619330540117
6.24999999999999,-6.99938670231229,24.9187539104914,-17.9193672081791
6.29999999999999,-8.61840288943633,26.7100438060735,-18.0916409166372
6.34999999999999,-10.058130959126,28.3432958714882,-18.2851649123622
6.39999999999999,-11.3771372117323,29.5112111764585,-18.1340739647262
6.44999999999999,-12.6867002086143,30.1464895323873,-17.459789323773
6.49999999999999,-14.2140364750462,30.3421780708068,-16.1281415957606
6.54999999999999,-16.2429081785214,30.357509748382,-14.1146015698604
6.59999999999999,-18.8682232978355,30.4817682586074,-11.6135449607718
6.64999999999999,-21.3941497095089,30.9466568191148,-9.55250710960585
6.69999999999999,-23.4719189375173,31.6759830251789,-8.20406408766169
6.74999999999999,-25.2410470014462,32.4359695789849,-7.19492257753866
6.79999999999999,-26.6327147110328,32.8389786628574,-6.20626395182454
6.84999999999999,-27.7378674422196,32.7930328085597,-5.05516536634004
6.89999999999999,-28.5816543299771,32.0293134600018,-3.44765913002479
6.94999999999999,-29.4931568493427,30.7108173692786,-1.217660519936
6.99999999999998,-30.7649669958924,28.8147545026096,1.95021249328277
7.04999999999998,-32.2993722115834,27.0047141575102,5.29465805407322
7.09999999999998,-33.9104813041164,26.2161996563135,7.69428164780293
7.14999999999998,-35.6534846498919,26.1680068550682,9.48547779482375
7.19999999999998,-37.0003668912342,25.9847320281074,11.0156348631269
7.24999999999998,-37.7916711370937,25.4173429607479,12.3743281763458
7.29999999999998,-38.0541721038163,24.3551304513775,13.6990416524387
7.34999999999998,-37.9563333728644,22.6663241313912,15.2900092414733
7.39999999999998,-37.6748229030653,20.1665063932779,17.5083165097874
7.44999999999998,-37.4422435820032,16.8475713444865,20.5946722375167
7.49999999999998,-37.4828835748992,13.8377736641077,23.6451099107915
7.54999999999998,-37.8062259367129,11.7878356755136,26.0183902611994
7.59999999999998,-38.1381735173643,10.3274184500253,27.810755067339
7.64999999999998,-38.1637853849482,9.18651991794004,28.9772654670081
7.69999999999998,-37.6459115131279,7.98785606691867,29.6580554462093
7.74999999999998,-36.6375209415415,6.53046196445857,30.107058977083
7.79999999999998,-34.8852675554141,4.31876236513336,30.5665051902808
7.84999999999998,-32.5474287897347,1.09648332064333,31.4509454690914
7.89999999999998,-30.0858047547672,-2.77214729569224,32.8579520504595
7.94999999999998,-28.6751262392045,-5.90578849178075,34.5809147309852
7.99999999999998,-28.1167002372954,-7.99688705016118,36.1135872874566
8.04999999999998,-27.6079670829136,-9.55513026122527,37.1630973441389
8.09999999999998,-26.8038087380069,-10.7132928798348,37.5171016178416
8.14999999999998,-25.6218112594077,-11.7285770752832,37.3503883346909
8.19999999999998,-23.8733583713933,-12.8916949908115,36.7650533622048
8.24999999999998,-21.3206796531829,-14.6523113676934,35.9729910208763
8.29999999999998,-17.9266698096122,-17.3139909519327,35.2406607615449
8.34999999999998,-14.4525474883389,-20.3996905858318,34.8522380741707
8.39999999999998,-11.9833334656471,-22.7818697632629,34.76520322891
8.44999999999998,-10.3904719832779,-24.3604271605517,34.7508991438296
8.49999999999998,-9.1831549234896,-25.2940293837588,34.4771843072485
8.54999999999998,-8.02636481256367,-25.6631330874714,33.6894979000351
8.59999999999997,-6.5737692759881,-25.7157940217917,32.2895632977798
8.64999999999998,-4.69096742861874,-25.7082409009069,30.3992083295256
8.69999999999997,-1.89493086241843,-26.0311265805175,27.9260574429359
8.74999999999998,1.75360842904389,-27.1252219365349,25.371613507491
8.79999999999997,4.59466238256747,-28.757196702397,24.1625343198296
8.84999999999997,6.43901245249858,-30.0776256203644,23.6386131678659
8.89999999999997,7.72393483136647,-30.8135391735917,23.0896043422252
8.94999999999997,8.61303148141365,-30.8663992329318,22.2533677515181
8.99999999999997,9.38007008403537,-30.4554581917253,21.0753881076899
9.04999999999997,10.240361955615,-29.6056136162272,19.3652516606122
9.09999999999997,11.6432844661111,-28.5575598934004,16.9142754272893
9.14999999999997,13.9184637477153,-27.7236494884545,13.8051857407392
9.19999999999997,16.4723722357178,-27.4603025914437,10.9879303557259
9.24999999999997,18.413556388624,-27.5733376588682,9.15978127024417
9.29999999999997,19.6781750973006,-27.6839788846189,8.00580378731823
9.34999999999997,20.294494335792,-27.36446460067,7.06997026487806
9.39999999999997,20.4780089994396,-26.5142720702358,6.0362630707962
9.44999999999997,20.3703532981005,-25.081768018868,4.71141472076742
9.49999999999997,20.2120618780918,-23.1131307695785,2.90106889148667
9.54999999999997,20.6061615360862,-20.7982770009382,0.19211546485199
9.59999999999997,21.8327914262418,-19.1300036621331,-2.70278776410865
9.64999999999997,23.4121774436071,-18.7000630893715,-4.71211435423568
9.69999999999997,24.656540532775,-18.5241331686007,-6.13240736417426
9.74999999999997,25.2757038567187,-18.1826015748114,-7.09310228190726
9.79999999999997,25.2773215312646,-17.4374307782994,-7.83989075296512
9.84999999999997,24.8556546347055,-16.2770226064015,-8.57863202830401
9.89999999999997,24.0474790200543,-14.456192677394,-9.59128634266039
9.94999999999997,23.2815514253147,-11.9693617248879,-11.3121897004268
9.99999999999997,23.1120561092345,-9.39862443259489,-13.7134316766397
10.05,23.4588308983668,-7.66677859164788,-15.7920523067189
10.1,23.9618993247501,-6.59662103696677,-17.3652782877833
10.15,24.1718793041332,-5.79925728509271,-18.3726220190406
10.2,23.7329160273137,-4.90041798371,-18.8324980436037
10.25,22.8216667253297,-3.75855462059385,-19.0631121047358
10.3,21.3845185371021,-2.24718097921864,-19.1373375578834
10.35,19.4331067616948,0.0924665461545697,-19.5255733078494
10.4,17.7768078310805,2.80143076224795,-20.5782385933284
10.45,17.2686962924488,4.87837716581834,-22.1470734582672
10.5,17.3461831445913,6.39944204576676,-23.7456251903581
10.55,17.3459482277286,7.580885127791,-24.9268333555196
10.6,16.9753627097008,8.57564171562631,-25.5510044253271
10.65,16.0787302922045,9.5386384144766,-25.6173687066812
10.7,14.5507454335563,10.7022398266273,-25.2529852601837
10.75,12.3682107847067,12.4179856043458,-24.7861963890525
10.8,9.85998737398386,14.7999984846603,-24.6599858586442
10.85,8.01075777429113,17.0492406751369,-25.059998449428
10.9,6.79778673601251,18.9281840319242,-25.7259707679368
10.95,5.9772857894229,20.360553770016,-26.3378395594389
11,5.11840807831942,21.3166096052999,-26.4350176836194
11.05,3.88464090853151,21.8819443627816,-25.7665852713131
11.1,2.35358819092527,22.3573739391948,-24.7109621301201
11.15,0.0918061115577948,22.9283987777989,-23.0202048893567
11.2,-2.84619489546758,24.0644092201523,-21.2182143246848
11.25,-5.37341424499522,25.4244919455941,-20.0510777005988
11.3,-7.11402759964495,27.1741100492816,-20.0600824496366
11.35,-8.55751741224857,28.6842124055988,-20.1266949933503
11.4,-9.79335224670408,29.6983799518621,-19.905027705158
11.45,-10.9377869097078,30.1985248984341,-19.2607379887263
11.5,-12.1773225654901,30.1859376270001,-18.0086150615101
11.55,-13.8398246568236,29.8964352203056,-16.0566105634819
11.6,-16.2469690398089,29.6232711410968,-13.3763021012879
11.65,-18.9155330322769,29.7492935989602,-10.8337605666832
11.7,-21.1393509553712,30.256224480635,-9.11687352526377
11.75,-22.955363558905,30.8922104221606,-7.93684686325554
11.8,-24.2771752020181,31.2954017403675,-7.01822653834942
11.85,-25.1617306372238,31.165258741429,-6.00352810420518
11.9,-25.7258202783267,30.3026975246903,-4.5768772463636
11.95,-26.2828548855162,29.0084065765608,-2.72555169104465
12,-27.1530584079959,27.0643605196357,0.0886978883601394
12.05,-28.5076789948614,25.0939477175884,3.41373127727298
12.1,-30.091113809571,24.0290695259909,6.06204428358007
12.15,-31.8032532805956,23.9048429204297,7.89841036016589
12.2,-33.1354387356233,23.7575761011166,9.37786263450668
12.25,-33.8791356785648,23.2555416523542,10.6235940262106
12.3,-34.1046746784244,22.3392676286985,11.7654070497259
12.35,-33.8558023552447,20.7869738496084,13.0688285056363
12.4,-33.4186931022858,18.4860216414636,14.9326714608222
12.45,-33.0574932355408,15.422506051007,17.6349871845338
12.5,-33.0722759538049,12.5154909055631,20.5567850482418
12.55,-33.4132447950311,10.503104205109,22.9101405899222
12.6,-33.778767670286,9.19170864144325,24.5870590288428
12.65,-33.8582481114905,8.1457827391381,25.7124653723524
12.7,-33.3869569547522,7.04618136271183,26.3407755920403
12.75,-32.3998606016489,5.67419527929206,26.7256653223569
12.7999999999999,-30.7567958432044,3.68723775076714,27.0695580924373
12.8499999999999,-28.5651340168855,0.731980004388635,27.8331540124968
12.8999999999999,-26.315898075093,-2.84208662123876,29.1579846963318
12.9499999999999,-25.2141199955106,-5.6218154109736,30.8359354064842
12.9999999999999,-24.8735277876653,-7.51703586860335,32.3905636562687
13.0499999999999,-24.5318408394445,-8.95014349158344,33.481984331028
13.0999999999999,-23.8737075457087,-10.0519616999152,33.9256692456239
13.1499999999999,-22.8173851820638,-11.0247725974482,33.842157779512
13.1999999999999,-21.1452068258045,-12.1759193171509,33.3211261429553
13.2499999999999,-18.678543599494,-13.9398326847427,32.6183762842367
13.2999999999999,-15.4388382674645,-16.6060222854838,32.0448605529484
13.3499999999999,-12.4083086735601,-19.4823363161688,31.8906449897289
13.3999999999999,-10.3580609692227,-21.6897243948364,32.0477853640591
13.4499999999999,-9.05346469552687,-23.193123345234,32.2465880407609
13.4999999999999,-8.01071570526906,-24.0988315536406,32.1095472589097
13.5499999999999,-6.89983942817872,-24.5000225685602,31.399861996739
13.5999999999999,-5.50314645984221,-24.6636612021321,30.1668076619743
13.6499999999999,-3.59304107599932,-24.7481702994587,28.3412113754581
13.6999999999999,-0.553251290911396,-25.418131086633,25.9713823775443
13.7499999999999,2.9099294920531,-26.6516171590824,23.7416876670294
13.7999999999999,5.32758405039063,-28.3290991294915,23.0015150791009
13.8499999999999,7.0065067780941,-29.7103909163974,22.7038841383033
13.8999999999999,8.23921128687618,-30.5463075454199,22.3070962585436
13.9499999999999,9.14862046285119,-30.6968124554724,21.5481919926212
13.9999999999999,9.99064043929448,-30.4414851386038,20.4508446993094
14.0499999999999,11.0526231311282,-29.7127547630634,18.6601316319351
14.0999999999999,12.7762568061522,-28.8941835259582,16.1179267198061
14.1499999999999,15.3616374238657,-28.3407032913855,12.9790658675198
14.1999999999999,17.8729668418478,-28.3313066724269,10.4583398305791
14.2499999999999,19.7965573122503,-28.6282671031818,8.83170979093148
14.2999999999999,21.0576291487,-28.8426836648263,7.78505451612628
14.3499999999999,21.733820221009,-28.5840401859228,6.85021996491379
14.3999999999999,22.011446072378,-27.8045994147417,5.79315334236361
14.4499999999999,22.0228115814596,-26.2897169563272,4.26690537486766
14.4999999999999,22.1450810726152,-24.4076623304688,2.26258125785354
14.5499999999999,22.9180558046267,-22.1830723832303,-0.734983421396418
14.5999999999999,24.3139310461614,-20.6673278733465,-3.6466031728149
14.6499999999999,25.9497580833791,-20.3315468227514,-5.61821126062768
14.6999999999999,27.2390266625592,-20.1784247699278,-7.06060189263142
14.7499999999999,27.8851847985789,-19.8001285103054,-8.0850562882735
14.7999999999999,27.9527812980939,-19.0145289869037,-8.93825231119018
14.8499999999999,27.5609676989358,-17.7367076848504,-9.82426001408538
14.8999999999999,26.8570313671815,-15.7923593247157,-11.0646720424658
14.9499999999999,26.2340981307041,-13.1254113169184,-13.1086868137858
14.9999999999999,26.1416239885836,-10.415696558265,-15.7259274303186
15.0499999999999,26.4617882066067,-8.53550100003639,-17.9262872065704
15.0999999999999,26.9252599910228,-7.38265477262496,-19.5426052183979
15.1499999999999,27.1092392743238,-6.52240111618089,-20.5868381581429
15.1999999999999,26.7515212799005,-5.61018837450795,-21.1413329053926
15.2499999999999,25.6832936556534,-4.35539286678722,-21.3279007888662
15.2999999999999,24.2032982595954,-2.70499079119341,-21.498307468402
15.3499999999999,22.1963549499662,-0.194839999708685,-22.0015149502575
15.3999999999999,20.3380615076245,2.80137429671901,-23.1394358043436
15.4499999999999,19.6599182284468,5.07934939825812,-24.739267626705
15.4999999999999,19.6092004800684,6.70179965885309,-26.3110001389215
15.5499999999999,19.5250809321949,7.95638951577062,-27.4814704479655
15.5999999999999,19.0562660389634,8.96033391822089,-28.0165999571843
15.6499999999999,18.1348705462751,9.92139360528568,-28.0562641515608
15.6999999999999,16.5991328888074,11.0585186821932,-27.6576515710006
15.7499999999999,14.3417946532504,12.7709388490742,-27.1127335023245
15.7999999999999,11.5451322607963,15.3095916290508,-26.854723889847
