"Time [ms]","Current(PhaseA) [A]","Current(PhaseB) [A]","Current(PhaseC) [A]"
0,0,0,0
0.1,4.98721381660587e-06,0.944491479207188,-0.944496466421004
0.2,3.86283729340784e-07,1.89183676274383,-1.89183714902756
0.3,-4.2146463579243e-06,2.83918204628047,-2.83917783163411
0.4,-8.81557644518938e-06,3.78652732981711,-3.78651851424066
0.5,1.05984896577507,5.49785985757789,-6.55770882335296
0.6,1.63316587701987,7.24170731945064,-8.87487319647051
0.7,0.864204786891882,8.86770522142315,-9.73191000831503
0.8,-1.02877132952566,11.5624205969979,-10.5336492674722
0.9,-2.48168372700522,15.1679134714543,-12.6862297444491
1,-4.2854388006551,18.0920308399857,-13.8065920393306
1.1,-7.56370705397347,20.4968595730847,-12.9331525191112
1.2,-11.2909691250574,23.2735551630426,-11.9825860379851
1.3,-13.759754665757,26.2079455659472,-12.4481909001902
1.4,-16.0397309833189,29.0524899995058,-13.0127590161868
1.5,-19.33839066268,30.4649747121103,-11.1265840494303
1.6,-23.6626675963183,31.5768594162135,-7.91419181989521
1.7,-27.3906515588201,33.2901628463278,-5.89951128750762
1.8,-30.9503121510152,34.7956753466364,-3.84536319562122
1.9,-33.9780084769961,34.5863206685239,-0.60831219152771
2,-37.64176669106,31.9634477459087,5.67831894515126
2.1,-41.7378156631804,30.5854429299706,11.1523727332097
2.2,-45.3840615321231,30.595603481551,14.788458050572
2.3,-45.9528297168858,27.9917893162935,17.9610404005923
2.4,-45.3384255735577,22.6069771137888,22.7314484597689
2.5,-46.6556449902162,16.5456578881241,30.109987102092
2.6,-48.4719195563655,13.2141308125464,35.2577887438192
2.7,-47.500537135022,10.2661803893235,37.2343567456985
2.8,-43.6511673980151,5.61519842004259,38.0359689779725
2.9,-38.5124287278674,-2.31236293456054,40.824791662428
3,-35.8223985317058,-8.76398905894564,44.5863875906515
3.1,-34.1682670099507,-11.7700041147876,45.9382711247383
3.2,-31.6085971187859,-13.8261808736703,45.4347779924561
3.3,-26.1554087659386,-17.7362443738294,43.891653139768
3.4,-18.3128044729487,-23.9245678310359,42.2373723039846
3.5,-12.921301344532,-27.1860211562458,40.1073225007778
3.6,-9.09136364576248,-27.8332062548635,36.924569900626
3.7,-3.61418573403874,-27.7733163796082,31.3875021136469
3.8,5.38429534370828,-30.8738082459557,25.4895129022474
3.9,8.68139619269122,-32.4438915806336,23.7624953879424
4,9.40169807926013,-31.1513890923909,21.7496910131307
4.1,9.79982964461239,-27.9139512851431,18.1141216405307
4.2,11.9029133512615,-24.4833235238732,12.5804101726118
4.3,14.4109400468198,-23.7807808047093,9.36984075788946
4.4,15.2083415086448,-22.608207542842,7.39986603419731
4.5,14.5799561683714,-19.1175403847577,4.5375842163863
4.6,14.6287385851597,-14.7709576594216,0.142219074261847
4.7,17.8998410170256,-14.3281131879668,-3.57172782905884
4.8,18.4632045273171,-13.3483274085296,-5.11487711878753
4.9,16.5854813787971,-10.5164278744898,-6.06905350430733
5,15.4166523328307,-6.52280992408642,-8.89384240874422
5.1,17.3483605879666,-4.6530025726971,-12.6953580152695
5.2,17.5821433472722,-3.38889013445608,-14.193253212816
5.3,15.4804754897423,-1.15040612937935,-14.3300693603629
5.4,12.5830192481538,2.80430216274097,-15.3873214108947
5.5,12.9754824255789,5.70775780875621,-18.6832402343351
5.6,13.1346361693874,7.68603012948816,-20.8206662988755
5.7,11.6349548864347,9.52252037579663,-21.1574752622313
5.8,8.3195137377738,13.0883257172834,-21.4078394550572
5.9,5.66222936304859,16.9753430210455,-22.6375723840941
6,3.44295909060923,19.6180786117075,-23.0610377023168
6.1,-0.54250739605998,21.5794059915512,-21.0368985954912
6.2,-6.81141398968954,24.5279966493264,-17.7165826596368
6.3,-10.2326278272248,27.7705875761777,-17.5379597489528
6.4,-11.9938787063622,29.9647463538316,-17.9708676474694
6.5,-13.8652881679501,30.1225173526522,-16.2572291847021
6.6,-17.4363062485863,29.3318640030859,-11.8955577544995
6.7,-21.2104087714365,30.0139957266607,-8.80358695522412
6.8,-24.3247447914479,31.2906368182118,-6.96589202676384
6.9,-26.4300205321722,30.6519951700064,-4.22197463783428
7.00000000000001,-29.0061492183785,27.8161774020105,1.18997181636797
7.10000000000001,-32.5771849738098,25.5406696438511,7.03651532995872
7.20000000000001,-36.2157119285109,25.6021589264273,10.6135530020836
7.30000000000001,-36.885790723058,23.7102120028508,13.1755787202072
7.40000000000001,-35.9035918959118,19.2414876896881,16.6621042062238
7.50000000000001,-36.6452229666918,13.5725538795715,23.0726690871204
7.60000000000001,-38.4332489614436,10.5075493300844,27.9256996313592
7.70000000000001,-37.9061454869166,8.14095926728907,29.7651862196276
7.80000000000001,-34.7903705043555,4.28464951065449,30.505720993701
7.90000000000001,-30.3678177355379,-2.62039578804409,32.988213523582
8.00000000000001,-28.6222192225375,-7.72914395532814,36.3513631778656
8.10000000000001,-27.6131233600613,-10.3224667785314,37.9355901385928
8.20000000000001,-25.5377278089218,-12.2307151766081,37.7684429855299
8.3,-20.6764636233408,-16.3105613626418,36.9870249859827
8.4,-14.1809293955568,-21.9462186099279,36.1271480054847
8.5,-10.2776843588294,-24.8147705068664,35.0924548656958
8.6,-6.88687584872591,-25.5365354035295,32.4234112522554
8.7,-0.757920653485113,-26.480039889605,27.2379605430901
8.8,6.94229208581108,-30.0125378875458,23.0702458017348
8.9,9.50929266777849,-31.8309698956241,22.3216772278456
9,10.4030104022609,-31.0535694125127,20.6505590102518
9.1,11.4173362400795,-28.3156713995555,16.898335159476
9.2,14.4342397599564,-26.0480409832017,11.6138012232453
9.3,17.2515484956893,-26.2396330415419,8.98808454585262
9.4,18.3137679868027,-25.2746627616913,6.96089477488863
9.5,18.2224050163523,-21.9155563782661,3.69315136191387
9.6,19.7757271650977,-18.0958981823954,-1.67982898270226
9.7,23.4577122752739,-17.933715712967,-5.52399656230685
9.8,24.0086813811825,-16.7234527496717,-7.28522863151082
9.9,22.2699015365429,-13.3990958763965,-8.87080566014643
9.99999999999999,21.7444131208285,-8.74147569205852,-13.00293742877
10.1,23.7037676644553,-6.47448199474863,-17.2292856697067
10.2,23.7369060000416,-4.88291753230635,-18.8539884677352
10.3,21.3279642999025,-2.20491517608775,-19.1230491238148
10.4,17.9326562309653,2.75385330798642,-20.6865095389517
10.5,17.7559460518317,6.22812486053202,-23.9840709123638
10.6,17.6594085443815,8.29973849828149,-25.959147042663
10.7,15.9944644642791,10.1747629288349,-26.169227393114
10.8,12.0321248496357,14.031490706494,-26.0636155561297
10.9,8.29931059227473,18.3715094225759,-26.6708200148507
11,5.98183466643569,20.9227392469858,-26.9045739134215
11.1,2.28035089215993,22.4225126310169,-24.7028635231768
11.2,-4.78336629303582,25.0724484929689,-20.2890821999331
11.3,-9.09510973559551,28.3563878668716,-19.2612781312761
11.4,-11.0647607903969,30.5785840198157,-19.5138232294188
11.5,-12.4123934372361,30.4336256515525,-18.0212322143165
11.6,-15.0931984413017,28.7867481236114,-13.6935496823097
11.7,-18.8793439245326,28.6501928938877,-9.7708489693552
11.8,-21.9870756420228,29.8246809550322,-7.83760531300943
11.9,-23.5752652426776,28.9969028862351,-5.42163764355752
12,-25.2540729109307,25.9430227750155,-0.688949864084772
12.1,-28.5682929670476,23.2553618816602,5.31293108538733
12.2,-32.2954609193921,23.3464639546986,8.94899696469349
12.3,-32.9121636460446,21.6862630548317,11.2259005912129
12.4,-31.6174338245497,17.5300166058011,14.0874172187486
12.5,-32.0746168421623,12.1055337646637,19.9690830774986
12.6,-33.9331168080172,9.28204055652703,24.6510762514902
12.7,-33.6128985109323,7.18584239238462,26.4270561185477
12.8,-30.6920218776605,3.68106370209278,27.0109581755677
12.9,-26.55539971896,-2.71646380563973,29.2718635245997
13,-25.320892417732,-7.27278314446811,32.5936755622001
13.1,-24.6422277530433,-9.6752573825575,34.3174851356008
13.2,-22.7421208755254,-11.5314524270136,34.2735733025391
13.3,-18.0321506765472,-15.6503851083337,33.6825357848808
13.4,-12.3517433212683,-20.8825017363677,33.234245057636
13.5,-9.05485644012769,-23.67439216942,32.7292486095477
13.6,-5.76159689905667,-24.4411687895637,30.2027656886204
13.7,0.791050478362151,-25.9907849680697,25.1997344897076
13.8,7.55880752455818,-29.5459443186414,21.9871367940833
13.9,9.89360793418733,-31.5063145892376,21.6127066550503
14,10.9112560290234,-30.9712564303481,20.0600004013247
14.1,12.3051912241465,-28.5017397267838,16.1965485026374
14.2,15.7099758646154,-26.8053390836119,11.0953632189964
14.3,18.6333399451022,-27.3689748101515,8.73563486504944
14.4,19.8349577857868,-26.5234682803022,6.68851049451541
14.5,20.1012067830179,-23.1985822202397,3.09737543722179
14.6,22.3938571433122,-19.6963988700645,-2.69745827324771
14.7,26.1150152547029,-19.623449353806,-6.49156590089683
14.8,26.6918078871272,-18.2810482504671,-8.41075963666023
14.9,25.065425423428,-14.7151797170392,-10.3502457063888
15,24.8740282818627,-9.80666985802038,-15.0673584238423
15.1,26.8003448364172,-7.3428013485877,-19.4575434878294
15.2,26.7174473428882,-5.59042818251603,-21.1270191603722
15.3,24.1679322892368,-2.68233306956902,-21.4855992196678
15.4,20.541753142169,2.72961896891761,-23.2713721110867
15.5,20.0393781162427,6.51970112096044,-26.5590792372032
15.6,19.7847037500237,8.66133071147765,-28.4460344615014
15.7,18.1133900913558,10.5028341951442,-28.6162242864999
15.8,13.8526633029716,14.4955203118507,-28.3481836148223
15.9,9.46919337825876,19.1507633308723,-28.619956709131
16,7.01212924926993,21.7346521195634,-28.7467813688334
16.1,3.54742906224701,22.915561164436,-26.4629902266831
16.2,-3.56160628321948,25.3029075709465,-21.7413012877271
16.3,-8.56740825663585,28.6707700253534,-20.1033617687175
16.4,-10.6406966739276,30.8475039269344,-20.2068072530068
16.5,-11.8930549553804,30.5579825603225,-18.6649276049421
16.6,-14.0925409076997,28.6481657846977,-14.555624876998
16.7,-17.8357773447622,28.0693754533873,-10.2335981086251
16.8,-20.9478598758792,29.1422956688394,-8.19443579296009
16.9,-22.3515517181593,28.2393731020036,-5.88782138384433
17,-23.558043195991,25.0725361873995,-1.51449299140851
17.1,-26.6609577556684,22.1632559845727,4.49770177109572
17.1999999999999,-30.3818651361946,22.2118199639761,8.17004517221846
17.3,-30.983663250941,20.6388233772438,10.3448398736972
17.3999999999999,-29.599041509711,16.6706445436326,12.9283969660784
17.5,-29.8763187531017,11.4071856398191,18.4691331132827
17.5999999999999,-31.7612273822172,8.69252988950725,23.06869749271
17.6999999999999,-31.5070381965045,6.69701207568098,24.8100261208235
17.7999999999999,-28.7002317326771,3.3717823789221,25.328449353755
17.8999999999999,-24.7173155262917,-2.75238745460246,27.4697029808941
17.9999999999999,-23.7222383490454,-7.04826520980291,30.7705035588484
18.0999999999999,-23.1829967606385,-9.36296280724863,32.5459595678871
18.1999999999999,-21.3846118307552,-11.1971436104597,32.5817554412149
18.2999999999999,-16.7577485462298,-15.3270173177101,32.0847658639398
18.3999999999999,-11.4820542705999,-20.3609227995697,31.8429770701696
18.4999999999999,-8.44617662209827,-23.0729945438458,31.519171165944
18.5999999999999,-5.05609589749584,-23.9877726778392,29.043868575335
18.6999999999999,1.57889550069364,-25.7693795031647,24.1904840024711
18.7999999999999,7.83125460534198,-29.2932762420322,21.4620216366903
18.8999999999999,10.090325737292,-31.3332002733497,21.2428745360577
18.9999999999999,11.1704137602004,-30.903175062136,19.7327613019355
19.0999999999999,12.7871071812563,-28.5701197788154,15.783012597559
19.1999999999999,16.338738934852,-27.1928959157926,10.8541569809405
19.2999999999999,19.3091391162001,-27.9079149879583,8.59877587175832
19.3999999999999,20.5575729254979,-27.0351072078751,6.47753428237724
19.4999999999999,21.1041407409287,-23.7695793752344,2.66543863430567
19.5999999999999,23.6791432752053,-20.4585106209652,-3.22063265424006
19.6999999999999,27.4003158440416,-20.4219408263952,-6.97837501764634
19.7999999999999,27.9862331457864,-19.0097802040131,-8.97645294177338
19.8999999999999,26.4270441389904,-15.3301713549277,-11.0968727840627
19.9999999999999,26.3857739524493,-10.3145469607566,-16.0712269916927
20.0999999999999,28.2935362487739,-7.75423137106139,-20.5393048777124
20.1999999999999,28.1513271814234,-5.924135015792,-22.2271921656315
20.2999999999999,25.5328666991301,-2.90007466674877,-22.6327920323814
20.3999999999999,21.8029600580554,2.72333064261877,-24.5262907006742
20.4999999999999,21.1442799251855,6.6684196044255,-27.812699529611
20.5999999999999,20.799750566279,8.85401614981105,-29.6537667160901
20.6999999999999,19.1085293452567,10.6864126636656,-29.7949420089223
20.7999999999999,14.7354753604242,14.7300455591272,-29.4655209195514
20.8999999999999,10.0447541593389,19.5293693527134,-29.5741235120523
20.9999999999999,7.44591463447787,22.1164082220373,-29.5623228565151
21.0999999999999,3.97873700724004,23.2012180020214,-27.1799550092615
21.1999999999999,-2.93599828486628,25.4093598256831,-22.4733615408168
21.2999999999999,-8.31717370560459,28.8352304387323,-20.5180567331277
21.3999999999999,-10.4503722773368,30.9951324413182,-20.5447601639814
21.4999999999999,-11.6418422580017,30.6415931076631,-18.9997508496614
21.5999999999999,-13.6557806612311,28.6037485553152,-14.947967894084
21.6999999999999,-17.356352153715,27.7911199782446,-10.4347678245295
21.7999999999999,-20.436625013296,28.7583916855459,-8.3217666722499
21.8999999999999,-21.7745394886603,27.8205112976372,-6.04597180897685
21.9999999999999,-22.7551649255083,24.6801754496186,-1.92501052411026
22.0999999999999,-25.742661267704,21.6370206282297,4.10564063947432
22.1999999999999,-29.4625125291721,21.6625254005723,7.79998712859968
22.2999999999999,-30.0590565731925,20.1365540373718,9.92250253582069
22.3999999999999,-28.625525980226,16.2634485756451,12.3620774045809
22.4999999999999,-28.8164054654759,11.0815211068166,17.7348843586593
22.5999999999999,-30.7143294668943,8.40678231440686,22.3075471524874
22.6999999999999,-30.4967441974947,6.46673540242397,24.0300087950707
22.7999999999999,-27.7432919073763,3.22734536504812,24.5159465423281
22.8999999999999,-23.843060184698,-2.74281217506389,26.585872359762
22.9999999999999,-22.9469260343657,-6.93090101618178,29.8778270505475
23.0999999999999,-22.4612414501807,-9.20241990799027,31.663661358171
23.1999999999999,-20.7238036438605,-11.0213017695601,31.7451054134207
23.2999999999999,-16.1510155581076,-15.1491604636688,31.3001760217764
23.3999999999999,-11.0514245805565,-20.1026311470549,31.1540557276114
23.4999999999999,-8.14208610216689,-22.7642358858446,30.9063219880114
23.5999999999999,-4.86122252419954,-23.7305241201934,28.5917466443928
23.6999999999999,2.02219028378935,-25.6656701605031,23.6434798767137
23.7999999999999,7.99016228666777,-29.1589621264234,21.1687998397558
23.8999999999999,10.2055946791018,-31.2457673780933,21.0401726989915
23.9999999999999,11.3004408348363,-30.8290740004009,19.5286331655646
24.0999999999999,13.0310886144903,-28.5720147351287,15.5409261206384
24.1999999999999,16.6396755946305,-27.3641746708532,10.7244990762227
24.2999999999999,19.6325204511318,-28.1510238471459,8.51850339601407
24.3999999999999,20.8861943299177,-27.2088288575363,6.32263452761866
24.4999999999999,21.5906088180083,-24.0456784807829,2.4550696627746
24.5999999999999,24.3028439875939,-20.8160968452215,-3.48674714237237
24.6999999999999,28.0227902596463,-20.7990390761221,-7.22375118352419
24.7999999999999,28.6114349374173,-19.3510323582697,-9.26040257914755
24.8999999999999,27.0914223433262,-15.6173004459842,-11.474121897342
24.9999999999999,27.12517785559,-10.5521106787653,-16.5730671768247
25.0999999999999,29.0250298974178,-7.95290053252944,-21.0721293648884
25.1999999999999,28.8584362099611,-6.08758421399857,-22.7708519959626
25.2999999999999,26.2041139799539,-2.99814535877782,-23.2059686211762
25.3999999999999,22.4201471072221,2.73163780189742,-25.1517849091196
25.4999999999999,21.6934343798722,6.74928303823195,-28.4427174181041
25.5999999999999,21.3004717349404,8.95785098362722,-30.2583227185676
25.6999999999999,19.5951350451828,10.7896487866955,-30.3847838318782
25.7999999999999,15.1685294782039,14.8564510970983,-30.0249805753022
25.8999999999999,10.3289478809558,19.7267615626208,-30.0557094435766
25.9999999999999,7.65919504578265,22.3186630626072,-29.9778581083898
26.0999999999999,4.22646017193219,23.3587095724495,-27.5851697443817
26.1999999999999,-2.64910455226814,25.4861911476107,-22.8370865953426
26.2999999999999,-8.20839126925123,28.9345252963289,-20.7261340270777
26.3999999999999,-10.3701684580157,31.0811864418343,-20.7110179838187
26.4999999999999,-11.5333873939611,30.7036140577041,-19.1702266637431
26.5999999999999,-13.4565353245463,28.5955588842688,-15.1390235597224
26.6999999999999,-17.1351409466886,27.6686975941932,-10.5335566475046
26.7999999999999,-20.1971210503237,28.5846266010667,-8.38750555074303
26.8999999999999,-21.5025618644007,27.6197732752682,-6.11721141086739
26.9999999999999,-22.3833828306325,24.4938760048484,-2.11049317421582
27.0999999999999,-25.3024192420774,21.388937184314,3.91348205776341
27.1999999999999,-29.0218998813215,21.4011397717629,7.62076010955866
27.2999999999999,-29.6157622663463,19.898099801769,9.71766246457731
27.3999999999999,-28.1566055578074,16.0710322426999,12.0855733151075
27.4999999999999,-28.3000034887867,10.9240344887649,17.3759690000218
27.5999999999999,-30.2008629788892,8.26953442707417,21.9313285518151
27.6999999999999,-30.0000324068125,6.35463486627498,23.6453975405375
27.7999999999999,-27.273862262772,3.15974411518038,24.1141181475917
27.8999999999999,-23.40622615582,-2.73975013563767,26.1459762914576
27.9999999999999,-22.5624408086887,-6.87774692436636,29.4401877330551
28.0999999999999,-22.1026464722631,-9.12788198583052,31.2305284580937
28.1999999999999,-20.3823048057991,-10.9458880007494,31.3281928065485
28.2999999999999,-15.8509871543896,-15.0649843085988,30.9159714629883
28.3999999999999,-10.8268911766836,-19.9904016697399,30.8172928464235
28.4999999999999,-7.99366809547863,-22.6246718150469,30.6183399105256
28.5999999999999,-4.78487108700217,-23.6092122984019,28.3940833854041
28.6999999999999,2.23836538577736,-25.6239810260398,23.3856156402625
28.7999999999999,8.06677644843771,-29.101922432333,21.0351459838954
28.8999999999999,10.2654100213936,-31.2144738848688,20.9490638634752
28.9999999999999,11.3760355316555,-30.7994597690882,19.4234242374329
29.0999999999999,13.161849520879,-28.583768154937,15.421918634058
29.1999999999999,16.7954654091021,-27.4656237883937,10.6701583792916
29.2999999999999,19.8042503642639,-28.2855625505056,8.48131218624167
29.3999999999999,21.0548964067271,-27.2638174646455,6.20892105791851
29.4999999999999,21.8201304655983,-24.1935002776671,2.37336981206872
29.5999999999999,24.615576699454,-21.0005750988161,-3.61500160063778
29.6999999999999,28.3356801449537,-20.9915853959322,-7.34409474902154
29.7999999999999,28.9259624708062,-19.5260256933384,-9.39993677746786
29.8999999999999,27.4235869920101,-15.7645257386587,-11.6590612533514
29.9999999999999,27.4896682422891,-10.6722098147005,-16.8174584275886
30.0999999999999,29.3897544776521,-8.05364607182663,-21.3361084058255
30.1999999999999,29.2144318607152,-6.17389784947653,-23.0405340112387
30.2999999999999,26.5344466033583,-3.05169476617724,-23.482751837181
30.3999999999999,22.7218454345887,2.73464363251786,-25.4564890671065
30.4999999999999,21.9593441796693,6.78636757953845,-28.7457117592077
30.5999999999999,21.5426120450151,9.00613391016989,-30.548745955185
30.6999999999999,19.8301647211795,10.8379505093001,-30.6681152304795
30.7999999999999,15.3781136870843,14.9129013647525,-30.2910150518368
30.8999999999999,10.4671029836696,19.8146149276029,-30.2817179112725
30.9999999999999,7.75936079402518,22.4068468625856,-30.1662076566108
31.0999999999999,4.40321423837051,23.4189766132499,-27.8221908516203
31.1999999999999,-2.51136189192284,25.5181508718489,-23.0067889799261
31.2999999999999,-8.15967823320191,28.9772439463416,-20.8175657131397
31.3999999999999,-10.3330010437897,31.114577001363,-20.7815759575733
31.4999999999999,-11.4819483242933,30.7252519428749,-19.2433036185816
31.5999999999999,-13.3600623867799,28.5850130218571,-15.2249506350772
