"Time [ms]","Current(PhaseA) [A]","Current(PhaseB) [A]","Current(PhaseC) [A]"
0,0,0,0
0.01,7.97137521153234e-06,0.0928162791594019,-0.0928242505346134
0.02,6.93784004126431e-06,0.188589935990823,-0.188596873830864
0.03,5.90430487099627e-06,0.284363592822244,-0.284369497127114
0.04,4.87076970072823e-06,0.380137249653664,-0.380142120423365
0.05,3.8372345304602e-06,0.475910906485085,-0.475914743719615
0.06,2.80369936019217e-06,0.571684563316506,-0.571687367015866
0.07,1.77016418992413e-06,0.667458220147927,-0.667459990312117
0.08,7.36629019656095e-07,0.763231876979348,-0.763232613608367
0.09,-2.96906150611941e-07,0.859005533810769,-0.859005236904617
0.1,-1.33044132087998e-06,0.95477919064219,-0.954777860200868
0.11,-2.36397649114801e-06,1.05055284747361,-1.05055048349712
0.12,-3.39751166141604e-06,1.14632650430503,-1.14632310679337
0.13,-4.43104683168408e-06,1.24210016113645,-1.24209573008962
0.14,-5.46458200195212e-06,1.33787381796787,-1.33786835338587
0.15,-6.49811717222015e-06,1.43364747479929,-1.43364097668212
0.16,-7.53165234248819e-06,1.52942113163071,-1.52941359997837
0.17,-8.56518751275622e-06,1.62519478846214,-1.62518622327462
0.18,-9.59872268302426e-06,1.72096844529356,-1.72095884657087
0.19,-1.06322578532923e-05,1.81674210212498,-1.81673146986712
0.2,-1.16657930235603e-05,1.9125157589564,-1.91250409316337
0.21,-1.26993281938284e-05,2.00828941578782,-2.00827671645962
0.22,-1.37328633640964e-05,2.10406307261924,-2.10404933975587
0.23,-1.47663985343644e-05,2.19983672945066,-2.19982196305212
0.24,-1.57999337046325e-05,2.29561038628208,-2.29559458634838
0.25,-1.68334688749005e-05,2.3913840431135,-2.39136720964463
0.26,-1.78670040451685e-05,2.48715769994492,-2.48713983294088
0.27,-1.89005392154366e-05,2.58293135677634,-2.58291245623713
0.28,-1.99340743857046e-05,2.67870501360776,-2.67868507953338
0.29,-2.09676095559726e-05,2.77447867043919,-2.77445770282963
0.3,-2.20011447262407e-05,2.87025232727061,-2.87023032612588
0.31,-2.30346798965087e-05,2.96602598410203,-2.96600294942213
0.32,-2.40682150667768e-05,3.06179964093345,-3.06177557271838
0.33,-2.51017502370448e-05,3.15757329776487,-3.15754819601463
0.34,-2.61352854073128e-05,3.25334695459629,-3.25332081931088
0.35,-2.71688205775809e-05,3.34912061142771,-3.34909344260713
0.36,-2.82023557478489e-05,3.44489426825913,-3.44486606590338
0.37,-2.92358909181169e-05,3.54066792509055,-3.54063868919963
0.38,-3.0269426088385e-05,3.63644158192198,-3.63641131249589
0.39,-3.1302961258653e-05,3.7322152387534,-3.73218393579214
0.4,-3.23364964289211e-05,3.82798889558482,-3.82795655908839
0.41,-3.33700315991891e-05,3.92376255241624,-3.92372918238464
0.42,0.0286070731025046,4.05894382899355,-4.08755090209605
0.43,0.124977434176031,4.25767831168215,-4.38265574585818
0.440000000000001,0.221347795249556,4.45641279437075,-4.6777605896203
0.450000000000001,0.319802515106363,4.65592829726652,-4.97573081237288
0.460000000000001,0.426861895581327,4.85866801178676,-5.28552990736808
0.470000000000001,0.53392127605629,5.061407726307,-5.59532900236328
0.480000000000001,0.641400878177896,5.26219521184556,-5.90359609002345
0.490000000000001,0.749472840933926,5.46023076014489,-6.20970360107881
0.500000000000001,0.857544803689956,5.65826630844422,-6.51581111213418
0.510000000000001,0.957959287972659,5.85129637804185,-6.80925566601451
0.520000000000001,1.04587999158836,6.03615961396831,-7.08203960555667
0.530000000000001,1.13380069520406,6.22102284989476,-7.35482354509882
0.540000000000001,1.22139186650496,6.40573731747094,-7.62712918397589
0.550000000000001,1.2763593386413,6.57572371836921,-7.85208305701051
0.560000000000001,1.33132681077764,6.74571011926748,-8.07703693004511
0.570000000000001,1.38629428291398,6.91569652016575,-8.30199080307973
0.580000000000001,1.43452528508921,7.08435739769414,-8.51888268278334
0.590000000000001,1.4333555075497,7.24329777051006,-8.67665327805977
0.600000000000001,1.4321857300102,7.40223814332599,-8.83442387333619
0.610000000000001,1.43101595247069,7.56117851614192,-8.99219446861261
0.620000000000001,1.42984617493119,7.72011888895785,-9.14996506388903
0.630000000000001,1.36624560108684,7.87950742783223,-9.24575302891905
0.640000000000001,1.26273025583449,8.03918249910462,-9.3019127549391
0.650000000000001,1.15921491058213,8.19885757037702,-9.35807248095914
0.660000000000001,1.05569956532978,8.35853264164941,-9.41423220697919
0.670000000000001,0.952184220077433,8.51820771292181,-9.47039193299924
0.680000000000001,0.819742996090014,8.69204080136101,-9.51178379745101
0.690000000000001,0.638049600202364,8.88998078389501,-9.52803038409738
0.700000000000001,0.456356204314715,9.08792076642902,-9.54427697074374
0.710000000000001,0.274662808427065,9.28586074896303,-9.5605235573901
0.720000000000001,0.0929694125394161,9.48380073149704,-9.57677014403646
0.730000000000001,-0.0887239833482333,9.68174071403105,-9.59301673068282
0.740000000000001,-0.270417379235883,9.87968069656505,-9.60926331732918
0.750000000000001,-0.458744399400737,10.1519335537966,-9.69318915439588
0.760000000000001,-0.645352457511427,10.4618439928634,-9.81649153535202
0.770000000000001,-0.831960515622118,10.7717544319303,-9.93979391630816
0.780000000000001,-1.01856857373281,11.0816648709971,-10.0630962972643
0.790000000000001,-1.2051766318435,11.3915753100639,-10.1863986782204
0.800000000000001,-1.39178468995419,11.7014857491308,-10.3097010591766
0.810000000000001,-1.54491781919057,12.0447196043378,-10.4998017851473
0.820000000000002,-1.67526549263858,12.4106357848168,-10.7353702921782
0.830000000000002,-1.80561316608658,12.7765519652957,-10.9709387992092
0.840000000000002,-1.93596083953458,13.1424681457747,-11.2065073062402
0.850000000000002,-2.06630851298259,13.5083843262537,-11.4420758132711
0.860000000000002,-2.18780117203184,13.867220801755,-11.6794196297232
0.870000000000002,-2.2973135174828,14.2164788528748,-11.9191653353921
0.880000000000002,-2.40682586293375,14.5657369039946,-12.1589110410609
0.890000000000002,-2.5163382083847,14.9149949551144,-12.3986567467298
0.900000000000002,-2.62585055383566,15.2642530062343,-12.6384024523986
0.910000000000002,-2.74326692883555,15.5930604166532,-12.8497934878176
0.920000000000002,-2.87015076780066,15.897372004694,-13.0272212368934
0.930000000000002,-2.99703460676576,16.2016835927349,-13.2046489859692
0.940000000000002,-3.12391844573086,16.5059951807758,-13.3820767350449
0.950000000000002,-3.25080228469596,16.8103067688167,-13.5595044841207
0.960000000000002,-3.39534480333638,17.0912669376356,-13.6959221342992
0.970000000000002,-3.57060858661738,17.3316020346576,-13.7609934480402
0.980000000000002,-3.74587236989839,17.5719371316795,-13.8260647617811
0.990000000000002,-3.92113615317939,17.8122722287014,-13.891136075522
1,-4.09639993646039,18.0526073257233,-13.9562073892629
1.01,-4.2716637197414,18.2929424227452,-14.0212787030039
1.02,-4.50889776939317,18.4895063395424,-13.9806085701493
1.03,-4.75008736796222,18.6832763512189,-13.9331889832567
1.04,-4.99127696653127,18.8770463628954,-13.8857693963641
1.05,-5.23246656510032,19.0708163745719,-13.8383498094716
1.06,-5.47365616366937,19.2645863862484,-13.790930222579
1.07,-5.7492323640261,19.4653652119935,-13.7161328479673
1.08,-6.08728562960265,19.6788783618913,-13.5915927322886
1.09,-6.42533889517921,19.8923915117892,-13.4670526166099
1.1,-6.76339216075576,20.105904661687,-13.3425125009312
1.11,-7.10144542633231,20.3194178115849,-13.2179723852525
1.12,-7.43949869190887,20.5329309614828,-13.0934322695738
1.13,-7.82166450179708,20.8045169324034,-12.9828524306063
1.14,-8.20846091025943,21.0821989453098,-12.8737380350504
1.15,-8.59525731872179,21.3598809582162,-12.7646236394944
1.16,-8.98205372718414,21.6375629711227,-12.6555092439385
1.17,-9.36885013564649,21.9152449840291,-12.5463948483826
1.18,-9.75266266472996,22.2072843828369,-12.4546217181069
1.19,-10.1354268037614,22.5043682685829,-12.3689414648216
1.2,-10.5181909427928,22.801452154329,-12.2832612115362
1.21,-10.9009550818242,23.0985360400751,-12.1975809582508
1.22,-11.2822079378351,23.3957687802442,-12.1135608424091
1.23,-11.6512331403158,23.6942058880176,-12.0429727477019
1.24,-12.0202583427965,23.9926429957911,-11.9723846529947
1.25,-12.3877875920467,24.2920903159644,-11.9043027239177
1.26,-12.678650363008,24.6892715507815,-12.0106211877734
1.27,-12.9677487809122,25.0931713354731,-12.125422554561
1.28,-13.2568471988163,25.4970711201648,-12.2402239213485
1.29,-13.5459456167205,25.9009709048565,-12.355025288136
1.3,-13.8350440346246,26.3048706895481,-12.4698266549235
1.31,-14.1241424525287,26.7087704742398,-12.5846280217111
1.32,-14.4039747890167,27.0701322039295,-12.6661574149128
1.33,-14.6798359477549,27.4132633386184,-12.7334273908635
1.34,-14.955697106493,27.7563944733073,-12.8006973668142
1.35,-15.2315582652312,28.0995256079961,-12.867967342765
1.36,-15.5074194239693,28.442656742685,-12.9352373187157
1.37,-15.7832805827075,28.7857878773739,-13.0025072946664
1.38,-16.0591417414457,29.1289190120627,-13.0697772706171
1.39,-16.3588105842426,29.3532795541134,-12.9944689698707
1.4,-16.6594714138754,29.5726913214707,-12.9132199075954
1.41,-16.9601322435081,29.7921030888281,-12.83197084532
1.42,-17.2607930731409,30.0115148561855,-12.7507217830446
1.43,-17.5614539027736,30.2309266235429,-12.6694727207693
1.44,-17.8621147324064,30.4503383909003,-12.5882236584939
1.45,-18.2211773673019,30.6293142884994,-12.4081369211975
1.46,-18.6410255546136,30.7662038726766,-12.125178318063
1.47,-19.0608737419253,30.9030934568539,-11.8422197149286
1.48,-19.480721929237,31.0399830410311,-11.5592611117941
1.49,-19.9005701165487,31.1768726252083,-11.2763025086596
1.5,-20.3204183038604,31.3137622093856,-10.9933439055251
1.51,-20.7402664911722,31.4506517935628,-10.7103853023907
1.52,-21.1986444702782,31.5914915068144,-10.3928470365362
1.53,-21.7160364342842,31.738381417762,-10.0223449834778
1.54,-22.2334283982902,31.8852713287096,-9.65184293041947
1.55,-22.7508203622962,32.0321612396573,-9.2813408773611
1.56,-23.2682123263022,32.1790511506049,-8.91083882430273
1.57,-23.7856042903082,32.3259410615526,-8.54033677124436
1.58,-24.2889274143753,32.4936414586318,-8.20471404425653
1.59,-24.7750552896282,32.6867768943163,-7.91172160468819
1.6,-25.2611831648811,32.8799123300009,-7.61872916511985
1.61,-25.747311040134,33.0730477656854,-7.32573672555151
1.62,-26.2031211175802,33.2740238372457,-7.07090271966545
1.63,-26.6508720335843,33.477084128469,-6.8262120948848
1.64,-27.0986229495883,33.6801444196924,-6.58152147010414
1.65,-27.5463738655924,33.8832047109158,-6.33683084532348
1.66,-27.9713499528585,34.0848090112434,-6.11345905838482
1.67,-28.382661142882,34.2855397170334,-5.90287857415135
1.68,-28.7939723329055,34.4862704228234,-5.69229808991788
1.69,-29.205283522929,34.6870011286135,-5.48171760568441
1.7,-29.6165947129525,34.8877318344035,-5.27113712145093
1.71,-30.027905902976,35.0884625401935,-5.06055663721746
1.72,-30.384129509062,35.2458208671264,-4.86169135806439
1.73,-30.7395142179307,35.4025187009803,-4.66300448304959
1.74,-31.0948989267994,35.5592165348342,-4.46431760803479
1.75,-31.4502836356681,35.7159143686881,-4.26563073302
1.76,-31.8056683445367,35.872612202542,-4.0669438580052
1.77,-32.1610530534054,36.0293100363959,-3.8682569829904
1.78,-32.5164377622741,36.1860078702498,-3.6695701079756
1.79,-32.8425394361217,36.2688733133043,-3.42633387718253
1.8,-33.1117975713989,36.2084170565719,-3.09661948517296
1.81,-33.3810557066761,36.1479607998396,-2.76690509316338
1.82,-33.6503138419534,36.0875045431073,-2.43719070115381
1.83,-33.9195719772306,36.0270482863749,-2.10747630914423
1.84,-34.1888301125078,35.9665920296426,-1.77776191713466
1.85,-34.4580882477851,35.9061357729102,-1.44804752512509
1.86,-34.7273463830623,35.8456795161779,-1.11833313311551
1.87,-34.9966045183395,35.7852232594456,-0.78861874110594
1.88,-35.2658626536168,35.7247670027132,-0.458904349096366
1.89,-35.535120788894,35.6643107459809,-0.129189957086792
1.9,-35.8043789241712,35.6038544892485,0.200524434922782
1.91,-36.1070140474087,35.3734316595738,0.733582387834981
1.92,-36.4111696577539,35.1118623323292,1.29930732542479
1.93,-36.7153252680991,34.8502930050845,1.8650322630146
1.94,-37.0194808784442,34.5887236778399,2.43075720060441
1.95,-37.3236364887894,34.3271543505952,2.99648213819422
1.96,-37.6277920991346,34.0655850233506,3.56220707578402
1.97,-37.9940668636292,33.7309182232285,4.26314864040067
1.98,-38.3646600719952,33.391169780607,4.97349029138811
1.99,-38.7352532803611,33.0514213379855,5.68383194237555
2,-39.105846488727,32.711672895364,6.39417359336299
2.01,-39.476439697093,32.3719244527425,7.10451524435043
2.02,-39.8498488255,32.1197796720918,7.73006915340819
2.03,-40.2245528660427,31.9079197870918,8.31663307895091
2.04,-40.5992569065854,31.6960599020917,8.90319700449364
2.05,-40.9674787908733,31.4934224515918,9.47405633928139
2.06,-41.2903255813774,31.3553420425925,9.93498353878476
2.07,-41.6131723718815,31.2172616335932,10.3959107382881
2.08,-41.9360191623855,31.0791812245939,10.8568379377915
2.09,-42.3022704690741,31.0363983313514,11.2658721377227
2.1,-42.6931715801642,31.0477821474382,11.6453894327261
2.11,-43.0840726912544,31.059165963525,12.0249067277295
2.12,-43.4655724540462,31.069522204037,12.3960502500093
2.13,-43.8127463637488,31.0761265988458,12.7366197649031
2.14,-44.1599202734514,31.0827309936546,13.0771892797969
2.15,-44.5070941831541,31.0893353884634,13.4177587946906
2.16,-44.814218323404,31.0621293773787,13.7520889460252
2.17,-45.0743275169051,30.9952328898104,14.0790946270948
2.18,-45.3344367104063,30.9283364022421,14.4061003081643
2.19,-45.5945459039075,30.8614399146737,14.7331059892338
2.20000000000001,-45.8546550974087,30.7945434271054,15.0601116703033
2.21,-46.0240365284302,30.6428706448477,15.3811658835826
2.22000000000001,-46.1774071778378,30.4762373399978,15.7011698378401
2.23,-46.3307778272454,30.3096040351479,16.0211737920976
2.24000000000001,-46.4841484766529,30.1429707302979,16.341177746355
2.25,-46.6375191260605,29.976337425448,16.6611817006125
2.26000000000001,-46.7908897754681,29.8097041205981,16.98118565487
2.27,-46.8441468069801,29.4914072915233,17.3527395154568
2.28000000000001,-46.8963925898266,29.1715785076585,17.7248140821681
2.29,-46.9486383726731,28.8517497237936,18.0968886488795
2.30000000000001,-47.0008841555196,28.5319209399288,18.4689632155908
2.31,-47.0531299383661,28.2120921560639,18.8410377823021
2.32000000000001,-47.1053757212126,27.8922633721991,19.2131123490135
2.33000000000001,-47.099549039423,27.3758917519061,19.7236572875169
2.34000000000001,-47.0931357670816,26.8575348504373,20.2356009166443
2.35000000000001,-47.0867224947403,26.3391779489684,20.7475445457718
2.36000000000001,-47.0803092223989,25.8208210474996,21.2594881748993
2.37000000000001,-47.0738959500575,25.3024641460307,21.7714318040268
2.38000000000001,-47.0535895460237,24.678827864505,22.3747616815187
2.39000000000001,-47.0294780167494,24.0263571030913,23.0031209136582
2.40000000000001,-47.0053664874751,23.3738863416775,23.6314801457976
2.41000000000001,-46.9814984929193,22.7051878138629,24.2763106790564
2.42000000000001,-46.9587785906079,21.9599869587305,24.9987916318774
2.43000000000001,-46.9360586882965,21.2147861035981,25.7212725846984
2.44000000000001,-46.9133387859851,20.4695852484658,26.4437535375194
2.45000000000001,-46.9085332914628,19.7470215215154,27.1615117699475
2.46000000000001,-46.9475872091138,19.0798797290796,27.8677074800343
2.47000000000001,-46.9866411267648,18.4127379366438,28.573903190121
2.48000000000001,-47.0256950444157,17.7455961442079,29.2800989002078
2.49000000000001,-47.08741234171,17.1856881237509,29.9017242179591
2.50000000000001,-47.1605465295012,16.6798001237642,30.4807464057369
2.51000000000001,-47.2340016407421,16.1789262176999,31.0550754230421
2.52000000000001,-47.3120731123747,15.7501781242103,31.5618949881644
2.53000000000001,-47.3901445840074,15.3214300307207,32.0687145532866
2.54000000000001,-47.4666662398341,14.9034368860349,32.5632293537992
2.55000000000001,-47.5356211479026,14.5379531972733,32.9976679506293
2.56000000000001,-47.6045760559711,14.1724695085116,33.4321065474595
2.57000000000001,-47.6735309640396,13.80698581975,33.8665451442896
2.58000000000001,-47.7088866363008,13.498706108685,34.2101805276158
2.59000000000001,-47.7437306450725,13.1912975241838,34.5524331208887
2.60000000000001,-47.7785746538442,12.8838889396826,34.8946857141616
2.61000000000001,-47.7978885943902,12.5876021012206,35.2102864931696
2.62000000000001,-47.7772680737844,12.3199140382878,35.4573540354966
2.63000000000001,-47.7566475531786,12.0522259753551,35.7044215778236
2.64000000000001,-47.7360270325728,11.7845379124223,35.9514891201505
2.65000000000001,-47.715406511967,11.5168498494896,36.1985566624775
2.66000000000001,-47.617696306647,11.2394487597613,36.3782475468858
2.67000000000001,-47.5063820393187,10.9603336064808,36.5460484328379
2.68000000000001,-47.3950677719904,10.6812184532004,36.7138493187901
2.69000000000001,-47.2837535046621,10.4021032999199,36.8816502047422
2.70000000000001,-47.1614976683657,10.1163319167328,37.0451657516329
2.71000000000001,-46.867823918237,9.72627959834131,37.1415443198957
2.72000000000001,-46.5741501681082,9.33622727994985,37.2379228881584
2.73000000000001,-46.2804764179795,8.94617496155839,37.3343014564211
2.74000000000001,-45.9868026678507,8.55612264316693,37.4306800246839
2.75000000000001,-45.693128917722,8.16607032477547,37.5270585929466
2.76000000000001,-45.3994551675933,7.77601800638402,37.6234371612093
2.77000000000001,-45.1057814174645,7.38596568799256,37.719815729472
2.78000000000001,-44.6499379349978,6.81439603912542,37.8355418958724
2.79000000000001,-44.173021549459,6.21923939251301,37.953782156946
2.80000000000001,-43.6961051639202,5.62408274590059,38.0720224180197
2.81000000000001,-43.2191887783815,5.02892609928817,38.1902626790933
2.82000000000001,-42.6642829930015,4.27201463713392,38.3922683558676
2.83000000000001,-42.1069651643276,3.51010044872591,38.5968647156017
2.84000000000001,-41.5495569040151,2.738105986054,38.8114509179611
2.85000000000001,-40.9914854783533,1.89218951211404,39.0992959662392
2.86000000000001,-40.4334140526915,1.04627303817407,39.3871410145174
2.87000000000001,-39.8620721635434,0.185929938504064,39.6761422250393
2.88000000000001,-39.2841489854237,-0.70201080497529,39.986159790399
2.89000000000001,-38.7120448832313,-1.59334559624033,40.3053904794716
2.90000000000001,-38.1399407810389,-2.48468038750536,40.6246211685443
2.91000000000001,-37.5888999914542,-3.36755179379964,40.9564517852539
2.92000000000001,-37.1109706299735,-4.21834994931209,41.3293205792856
2.93000000000001,-36.7684760960241,-5.00790971205073,41.7763858080748
2.94000000000001,-36.4426888256909,-5.77069178342709,42.2133806091179
2.95000000000001,-36.1779024946074,-6.43570414448109,42.6136066390884
2.96000000000001,-35.9188075062885,-7.09037096889491,43.0091784751834
2.97000000000001,-35.7251629597633,-7.6260641219477,43.351227081711
2.98000000000001,-35.531518413238,-8.1617572750005,43.6932756882386
2.99000000000001,-35.3574085230156,-8.6214536203028,43.9788621433185
3.00000000000001,-35.1907083300115,-9.05232359025155,44.2430319202631
3.01000000000001,-35.0240081370074,-9.48319356020031,44.5072016972078
3.02000000000001,-34.8544718675654,-9.83990305043933,44.6943749180048
3.03000000000001,-34.6846551070471,-10.1892779877401,44.8739330947872
3.04000000000001,-34.5148383465287,-10.5386529250409,45.0534912715696
3.05000000000001,-34.3242756055773,-10.8458924515896,45.1701680571669
3.06000000000001,-34.1212652763659,-11.1278507316873,45.2491160080532
3.07000000000001,-33.9182549471546,-11.4098090117849,45.3280639589395
3.08000000000001,-33.7152446179433,-11.6917672918826,45.4070119098258
3.09000000000001,-33.4838082144514,-11.9517485046438,45.4355567190951
3.10000000000001,-33.2059924266071,-12.1758723970141,45.3818648236212
3.11000000000001,-32.9281766387628,-12.3999962893844,45.3281729281472
3.12000000000001,-32.6503608509186,-12.6241201817547,45.2744810326732
3.13000000000001,-32.3725450630743,-12.848244074125,45.2207891371993
