"Time [ms]","Current(PhaseA) [A]","Current(PhaseB) [A]","Current(PhaseC) [A]"
0,0,0,0
0.05,3.69099505211807e-06,0.476067696353924,-0.476071387348976
0.1,-1.4990040155525e-06,0.955093724580568,-0.955092225576552
0.15,-6.68900308322306e-06,1.43411975280721,-1.43411306380413
0.2,-1.18790021508936e-05,1.91314578103385,-1.9131339020317
0.25,-1.70690012185642e-05,2.3921718092605,-2.39215474025928
0.3,-2.22590002862348e-05,2.87119783748714,-2.87117557848686
0.35,-2.74489993539053e-05,3.35022386571378,-3.35019641671443
0.4,-3.26389984215759e-05,3.82924989394043,-3.82921725494201
0.45,0.314530309244467,4.66035059317863,-4.97488090242309
0.5,0.858667902980504,5.65981113151646,-6.51847903449696
0.55,1.28112497750995,6.57712417015368,-7.85824914766364
0.6,1.43399522543193,7.40401323582913,-8.83800846126106
0.65,1.15702072302713,8.2028100147055,-9.35983073773263
0.7,0.451991054294663,9.09382191301531,-9.54581296730999
0.75,-0.462416939892101,10.1469915203058,-9.68457458041368
0.8,-1.38052354804205,11.7100671056134,-10.3295435575714
0.85,-2.05772926099796,13.5023527553912,-11.4446234943932
0.9,-2.62300836649974,15.2555582408736,-12.6325498743739
0.95,-3.24900657320188,16.7975325636466,-13.5485259904447
1,-4.08695394422335,18.0330894822694,-13.946135538046
1.05,-5.2116514910817,19.0590923470859,-13.8474408560043
1.1,-6.73047344635797,20.0982972986999,-13.3678238523419
1.15,-8.56853148918463,21.3500935013317,-12.7815620121471
1.2,-10.5077860620137,22.7969950561567,-12.289208994143
1.25,-12.394385385653,24.2995066709948,-11.9051212853418
1.3,-13.8457008366678,26.3151929410423,-12.4694921043744
1.35,-15.2423769303797,28.1099427462962,-12.8675658159165
1.4,-16.6697421035789,29.5828785263081,-12.9131364227293
1.45,-18.2310014171585,30.6394885136444,-12.4084870964859
1.5,-20.3287096300129,31.3236950552759,-10.9949854252629
1.55,-22.7623650095204,32.0435539963387,-9.28118898681825
1.6,-25.2828537907938,32.8978015387206,-7.61494774792676
1.65,-27.5765942556198,33.9053223567344,-6.32872810111461
1.7,-29.6436403951486,34.9029871569599,-5.25934676181123
1.75,-31.4657887831992,35.7207553220073,-4.25496653880815
1.8,-33.1150179108175,36.2024506398111,-3.08743272899367
1.85,-34.4573586182847,35.910359441467,-1.45300082318228
1.9,-35.7987119189771,35.6133363833557,0.185375535621434
1.95,-37.3112421230664,34.3015063510972,3.00973577196917
2,-39.0871713309485,32.700711278432,6.3864600525164
2.05,-40.9408666626671,31.471438725536,9.46942793713107
2.1,-42.6521064615684,31.0178895029179,11.6342169586505
2.15,-44.4570974043663,31.0545529531858,13.4025444511805
2.2,-45.8063018008333,30.7608428431115,15.0454589577218
2.25,-46.6024147225085,29.9515288707101,16.6508858517985
2.3,-46.9805146340415,28.5120495163675,18.4684651176741
2.35,-47.0811523534751,26.3323703656674,20.7487819878077
2.4,-46.9923126767434,23.36237293711,23.6299397396334
2.45,-46.8645212383619,19.7111262413912,27.1533949969708
2.5,-47.089103008339,16.6519113714103,30.4371916369286
2.55,-47.4449625665712,14.5027445451144,32.9422180214568
2.6,-47.6937666206388,12.8552260798453,34.8385405407935
2.65,-47.6503877115748,11.4964672981528,36.1539204134219
2.7,-47.1113380920959,10.1031007407382,37.0082373513576
2.75,-45.6084997209248,8.10526403071435,37.5032356902104
2.8,-43.6606955259811,5.60505109579285,38.0556444301882
2.85,-40.9640856550883,1.89314108825525,39.0709445668331
2.9,-38.0929816507787,-2.49806976688643,40.5910514176652
2.95,-36.1274423059099,-6.44729347469163,42.5747357806015
3,-35.1478808074995,-9.05825426961405,44.2061350771136
3.05,-34.2763763615974,-10.8543839845297,45.1307603461269
3.1,-33.1607739971868,-12.1895742800095,45.3503482771964
3.15,-31.6777132124012,-13.3091334640887,44.9868466764898
3.2,-29.585259175083,-14.5164388245143,44.1016979995973
3.25,-26.7129138293552,-16.2483924193773,42.9613062487324
3.3,-23.0681758621367,-18.8017862408702,41.8699621030069
3.35,-18.9375781868745,-22.1001349274168,41.0377131142913
3.4,-15.5222830554421,-24.9424219680563,40.4647050234984
3.45,-13.2778097931881,-26.7172757243114,39.9950855174995
3.5,-11.6367868084368,-27.7322009591468,39.3689877675836
3.55,-10.2581813030595,-28.1064922816108,38.3646735846702
3.6,-8.77233475708418,-28.0110735365451,36.7834082936292
3.65,-6.85989871438892,-27.6938884959997,34.5537872103886
3.7,-4.4586548759623,-27.473127149503,31.9317820254653
3.75,-0.937475958959676,-28.01407083359,28.9515467925496
3.8,2.59538104251424,-29.4487144540034,26.8533334114892
3.85,5.08508524333137,-30.6556951521532,25.5706099088218
3.9,6.59008579833939,-31.2766275680578,24.6865417697184
3.95,7.53373493744016,-31.2180389295491,23.684303992109
4,8.19398119443052,-30.5591244543931,22.3651432599625
4.05,8.84793176809828,-29.3522291579544,20.5042973898561
4.1,9.74055690806498,-27.9458598390965,18.2053029310316
4.15,11.2604241864723,-26.5824292608769,15.3220050744047
4.2,13.5982319558137,-25.7151662428637,12.1169342870501
4.25,15.6373385572836,-25.4001274289416,9.76278887165795
4.3,16.9103905244508,-25.2321204629463,8.32172993849563
4.35,17.411345595981,-24.7452398137957,7.33389421781469
4.4,17.4185383607664,-23.7651056874066,6.34656732664032
4.45,17.0807643800149,-22.2554003108065,5.17463593079166
4.5,16.5201227159156,-20.2196255791355,3.69950286321988
4.55,16.2159976515153,-17.8520282573677,1.63603060585237
4.6,16.8347271555386,-15.9287583995943,-0.905968755944342
4.65,18.1732372432863,-15.2607464619525,-2.91249078133376
4.7,19.2949076329055,-15.0246505076879,-4.27025712521759
4.75,19.8822370671766,-14.7414540937698,-5.1407829734068
4.8,19.8534651425607,-14.102780552713,-5.75068458984775
4.85,19.3688865371604,-13.1071347781293,-6.2617517590311
4.9,18.3562484508255,-11.5499386216472,-6.80630982917834
4.95,17.334610605577,-9.44410783761766,-7.8905027679593
5,16.9539569900643,-7.23629580284488,-9.71766118721945
5.05,17.2910511714915,-5.76491470644173,-11.5261364650497
5.1,17.835355237261,-4.89498852495237,-12.9403667123086
5.15,18.0171668097056,-4.21984288269032,-13.7973239270153
5.2,17.7246200883763,-3.45415755398163,-14.2704625343946
5.25,16.9140995820152,-2.52025298953003,-14.3938465924851
5.3,15.4708065851301,-1.15222587652809,-14.318580708602
5.35,13.7588889119011,0.738763694322663,-14.4976526062237
5.4,12.4728849228348,2.84578972718087,-15.3186746500157
5.44999999999999,12.2965725860431,4.54302341730183,-16.839596003345
5.49999999999999,12.6193216556778,5.87419062515427,-18.4935122808321
5.54999999999999,12.8018882838671,6.98657324327599,-19.7884615271431
5.59999999999999,12.5467073009546,7.93958717468914,-20.4862944756437
5.64999999999999,11.7385834040193,8.89836379387105,-20.6369471978904
5.69999999999999,10.3208039097758,10.0327989459052,-20.353602855681
5.74999999999999,8.37009846515255,11.6732978608927,-20.0433963260453
5.79999999999999,6.53249201161335,13.7444367566356,-20.276928768249
5.84999999999999,5.2688097127533,15.7005210336364,-20.9693307463897
5.89999999999999,4.4211510843174,17.4425637822961,-21.8637148666135
5.94999999999999,3.60853661720464,18.7867911767538,-22.3953277939584
5.99999999999999,2.69102217479641,19.8419405425687,-22.5329627173651
6.04999999999999,1.5459010596253,20.7093984020414,-22.2552994616667
6.09999999999999,-0.0638342570316928,21.3228023663412,-21.2589681093095
6.14999999999999,-2.33855632378159,22.1682177792839,-19.8296614555023
6.19999999999999,-4.87558801146245,23.4699332792991,-18.5943452678366
6.24999999999999,-6.94866956389281,24.8859239126368,-17.937254348744
6.29999999999999,-8.61147131623555,26.7033455303715,-18.0918742141359
6.34999999999999,-10.0621764142556,28.3425720045857,-18.28039559033
6.39999999999999,-11.385410967403,29.513792773847,-18.128381806444
6.44999999999999,-12.6983152023366,30.152721062733,-17.4544058603964
6.49999999999999,-14.228414134825,30.3507378156716,-16.1223236808466
6.54999999999999,-16.2633704797891,30.3718316300419,-14.1084611502528
6.59999999999999,-18.897661664135,30.5090833175233,-11.6114216533884
6.64999999999999,-21.432614864719,30.9791448208266,-9.54652995610759
6.69999999999999,-23.5189347573951,31.6992038106911,-8.18026905329595
6.74999999999999,-25.281331292815,32.4569387089344,-7.17560741611938
6.79999999999999,-26.6611735912566,32.8507226281023,-6.18954903684566
6.84999999999999,-27.7454177450452,32.8074283435691,-5.06201059852381
6.89999999999999,-28.5880959687007,32.0168072411364,-3.42871127243567
6.94999999999999,-29.4866532531319,30.7045559690654,-1.2179027159336
6.99999999999998,-30.7622534737443,28.8088568777293,1.953396596015
7.04999999999998,-32.2971446457956,27.0031534795,5.29399116629564
7.09999999999998,-33.8924316830902,26.2009724833306,7.69145919975967
7.14999999999998,-35.624749277523,26.1463417252447,9.47840755227833
7.19999999999998,-36.9709563862691,25.9630417243318,11.0079146619375
7.24999999999998,-37.7736365588658,25.4029726063417,12.3706639525241
7.29999999999998,-38.0441600649126,24.3450005700101,13.6991594949026
7.34999999999998,-37.9552089976093,22.6581057116176,15.2971032859917
7.39999999999998,-37.6725507408576,20.1585070930495,17.514043647808
7.44999999999998,-37.424045066002,16.8405757849132,20.5834692810889
7.49999999999998,-37.435674587347,13.8151094814707,23.6205651058763
7.54999999999998,-37.7407278963496,11.7634861132821,25.9772417830675
7.59999999999998,-38.0835523108016,10.3026080043068,27.7809443064948
7.64999999999998,-38.1176390535249,9.1695383856555,28.9481006678694
7.69999999999998,-37.6182346156627,7.98033602647195,29.6378985891906
7.74999999999998,-36.5840560857423,6.4985668774997,30.0854892082425
7.79999999999998,-34.863174624457,4.32187002479108,30.541304599666
7.84999999999998,-32.5075742060311,1.07953690066499,31.4280373053661
7.89999999999998,-30.0472550027729,-2.78102355556524,32.8282785583382
7.94999999999998,-28.6325071587916,-5.91617176083047,34.5486789196221
7.99999999999998,-28.0837781464045,-8.00273446330337,36.0865126097079
8.04999999999998,-27.5724957878854,-9.55851956627764,37.131015354163
8.09999999999998,-26.7689749195986,-10.7258964234351,37.4948713430337
8.14999999999998,-25.5700756732102,-11.7440493529488,37.314125026159
8.19999999999998,-23.810065482869,-12.9069325969472,36.7169980798162
8.24999999999998,-21.2477558180207,-14.6710347268267,35.9187905448473
8.29999999999998,-17.8513579835554,-17.3360560010852,35.1874139846405
8.34999999999998,-14.3968171662525,-20.411383938414,34.8082011046664
8.39999999999998,-11.9438481873783,-22.8058868065632,34.7497349939416
8.44999999999998,-10.3662830149756,-24.3794758483194,34.7457588632951
8.49999999999998,-9.18260879621484,-25.2920306037804,34.4746393999952
8.54999999999998,-8.02998733569843,-25.6644132759259,33.6944006116244
8.59999999999997,-6.59981890463436,-25.725790292658,32.3256091972924
8.64999999999998,-4.80205494776189,-25.6644459518446,30.4665008996064
8.69999999999997,-1.97367816062023,-25.9989301051389,27.9726082657591
8.74999999999998,1.62808118326939,-27.0585778911798,25.4304967079105
8.79999999999997,4.52712289522117,-28.7160175665578,24.1888946713367
8.84999999999997,6.40870304599952,-30.057334149431,23.6486311034315
8.89999999999997,7.71003384540656,-30.8017772000972,23.0917433546906
8.94999999999997,8.61230560257499,-30.863196256398,22.250890653823
8.99999999999997,9.38969011052996,-30.4532350654003,21.0635449548703
9.04999999999997,10.2611088422286,-29.6139777005246,19.352868858296
9.09999999999997,11.6785703837991,-28.5765498053606,16.8979794215615
9.14999999999997,13.9748569047614,-27.7571558053782,13.7822989006168
9.19999999999997,16.5389778158069,-27.4977232524916,10.9587454366847
9.24999999999997,18.4575857130068,-27.6023978289,9.14481211589314
9.29999999999997,19.7493420721814,-27.7230175925251,7.97367552034383
9.34999999999997,20.3399753210401,-27.3915555369418,7.05158021590164
9.39999999999997,20.5151335748039,-26.5609413966978,6.04580782189389
9.44999999999997,20.3737475392221,-25.03190303407,4.65815549484793
9.49999999999997,20.2336064232972,-23.0898147996245,2.85620837632734
9.54999999999997,20.6151099489267,-20.7987334382472,0.183623489320531
9.59999999999997,21.8420798211889,-19.1281267494235,-2.71395307176539
9.64999999999997,23.4054365641729,-18.68989208989,-4.71554447428295
9.69999999999997,24.6441658045839,-18.5118295635557,-6.13233624102817
9.74999999999997,25.2717660521074,-18.1753852899246,-7.09638076218273
9.79999999999997,25.2790109052888,-17.4330413025834,-7.84596960270545
9.84999999999997,24.8670632133462,-16.2811871894121,-8.58587602393409
9.89999999999997,24.0603995969729,-14.4593652280904,-9.60103436888248
9.94999999999997,23.2948689312978,-11.9718789931047,-11.3229899381931
9.99999999999997,23.0923946935713,-9.38748240523212,-13.7049122883392
10.05,23.4228410991493,-7.65014216250347,-15.7726989366459
10.1,23.9251912803647,-6.58571344138303,-17.3394778389817
10.15,24.1331420564821,-5.78729513751026,-18.3458469189719
10.2,23.7028287677032,-4.8880283213204,-18.8148004463828
10.25,22.8113547109953,-3.76454438545595,-19.0468103255393
10.3,21.3665082003246,-2.23954967073664,-19.126958529588
10.35,19.4107404364939,0.0979054296275478,-19.5086458661214
10.4,17.7550391727357,2.80718911458017,-20.5622282873159
10.45,17.2398905573499,4.88759323952931,-22.1274837968792
10.5,17.3228235321381,6.40810069553882,-23.730924227677
10.55,17.319585435021,7.5877275568479,-24.9073129918689
10.6,16.9439497928183,8.5860295112096,-25.5299793040279
10.65,16.035923708717,9.55416781645888,-25.590091525176
10.7,14.496132914059,10.7243534979018,-25.2204864119608
10.75,12.3033240734586,12.4471003023477,-24.7504243758063
10.8,9.79996043977062,14.8225085490979,-24.6224689888685
10.85,7.98217544971937,17.0571784083281,-25.0393538580474
10.9,6.79126238097027,18.9183387456953,-25.7096011266656
10.95,5.97196237436605,20.3642746408557,-26.3362370152217
11,5.08364461950741,21.2669686293506,-26.350613248858
11.05,3.92311257423935,21.8840613878318,-25.8071739620711
11.1,2.3956871073742,22.3392456265488,-24.7349327339231
11.15,0.169328982348162,22.8947898146515,-23.0641187969996
11.2,-2.74861878095254,24.0130010384801,-21.2643822575276
11.25,-5.30254250929651,25.3850553866715,-20.082512877375
11.3,-7.08479930788522,27.1553081700894,-20.0705088622042
11.35,-8.55136872127708,28.6791086928476,-20.1277399715705
11.4,-9.797880573,29.699832878061,-19.901952305061
11.45,-10.9468050553068,30.2016619778956,-19.2548569225889
11.5,-12.1923065956562,30.1951396812991,-18.0028330856429
11.55,-13.8643185809507,29.9141963631903,-16.0498777822396
11.6,-16.2903204449162,29.6550585810849,-13.3647381361687
11.65,-18.9887481046467,29.7827806833195,-10.7940325786729
11.7,-21.1958512896827,30.3006082815778,-9.1047569918951
11.75,-23.0117996831222,30.9301427810131,-7.91834309789104
11.8,-24.3389821416101,31.3462088465845,-7.00722670497439
11.85,-25.1753781512478,31.1624552036807,-5.98707705243292
11.9,-25.7525961601867,30.3332510107673,-4.58065485058066
11.95,-26.2918948160292,29.0109158009504,-2.71902098492116
12,-27.1588563662287,27.0585883137078,0.100268052520929
12.05,-28.509055354599,25.0843822602241,3.42467309437494
12.1,-30.0847921030654,24.019504753122,6.06528734994347
12.15,-31.7856142513561,23.8886587547334,7.89695549662265
12.2,-33.1195814393756,23.7429633920396,9.37661804733603
12.25,-33.8748867920008,23.2489585266107,10.62592826539
12.3,-34.1118643779968,22.340905051687,11.7709593263098
12.35,-33.8668967294766,20.7912207704619,13.0756759590148
12.4,-33.4287876782647,18.4883936991958,14.9403939790689
12.45,-33.0497877556791,15.4131790236632,17.6366087320158
12.5,-33.0390642759854,12.4976077391385,20.5414565368469
12.55,-33.3654744306885,10.4748311882973,22.8906432423913
12.6,-33.7380782037158,9.16970258468596,24.5683756190298
12.65,-33.823515215688,8.13014814995782,25.6933670657302
12.7,-33.3616653226485,7.0345479073605,26.3271174152881
12.75,-32.4199696638247,5.703805974871,26.7161636889538
12.7999999999999,-30.7462864518648,3.68743032885668,27.0588561230081
12.8499999999999,-28.5387263875138,0.724828043246389,27.8138983442674
12.8999999999999,-26.2873563925803,-2.85182878852993,29.1391851811102
12.9499999999999,-25.1827997797184,-5.63249589933574,30.8152956790542
12.9999999999999,-24.8477231057407,-7.5246377043922,32.3723608101329
13.0499999999999,-24.5014460329204,-8.95616486358111,33.4576108965015
13.0999999999999,-23.8436966254695,-10.0650619598871,33.9087585853565
13.1499999999999,-22.7623865203122,-11.0369949622096,33.7993814825218
13.1999999999999,-21.0956493470034,-12.1913591960652,33.2870085430686
13.2499999999999,-18.6123242033941,-13.9608920057282,32.5732162091223
13.2999999999999,-15.3715034227781,-16.633175316722,32.0046787395001
13.3499999999999,-12.3658222720119,-19.49658063206,31.8624029040719
13.3999999999999,-10.3433343919295,-21.7045484362565,32.047882828186
13.4499999999999,-9.02982178290788,-23.2182760981518,32.2480978810597
13.4999999999999,-8.00786508008175,-24.1045018378847,32.1123669179664
13.5499999999999,-6.91254921694547,-24.5113866803162,31.4239358972616
13.5999999999999,-5.62506954437194,-24.6461657119958,30.2712352563677
13.6499999999999,-3.61473956372973,-24.7384173287003,28.3531568924301
13.6999999999999,-0.658304807643286,-25.369922698026,26.0282275056693
13.7499999999999,2.79580416712664,-26.5926571512132,23.7968529840865
13.7999999999999,5.2748648426959,-28.2990419643328,23.024177121637
13.8499999999999,6.98118005466391,-29.6959219157567,22.7147418610928
13.8999999999999,8.22914716045361,-30.5387753170325,22.3096281565789
13.9499999999999,9.15096406763825,-30.6957889748053,21.5448249071671
13.9999999999999,10.0015385845845,-30.447071856278,20.4455332716935
14.0499999999999,11.0726264952059,-29.7243882652378,18.6517617700319
14.0999999999999,12.8129777575846,-28.917774277885,16.1047965203004
14.1499999999999,15.4174282970061,-28.3793828582816,12.9619545612754
14.1999999999999,17.9334041211381,-28.3772078176204,10.4438036964823
14.2499999999999,19.8342977490278,-28.6575241450823,8.82322639605459
14.2999999999999,21.1173048306256,-28.8738663143724,7.75656148374689
14.3499999999999,21.7832396247839,-28.6217572926694,6.83851766788555
14.3999999999999,22.0218736953857,-27.8104886242346,5.78861492884884
14.4499999999999,22.0539606465027,-26.2647803683207,4.21081972181807
14.4999999999999,22.1791304125147,-24.4143520450527,2.23522163253795
14.5499999999999,22.9335617938603,-22.187912142498,-0.745649651362218
14.5999999999999,24.3173567861107,-20.6636553364682,-3.65370144964257
14.6499999999999,25.9382110518237,-20.3196754364308,-5.6185356153929
14.6999999999999,27.2224110449502,-20.1642945388016,-7.05811650614861
14.7499999999999,27.8773411172503,-19.7917031026941,-8.08563801455624
14.7999999999999,27.9521719308669,-19.0107663756799,-8.94140555518711
14.8499999999999,27.5721072738297,-17.742601282009,-9.82950599182073
14.8999999999999,26.8721519207947,-15.7972898676412,-11.0748620531535
14.9499999999999,26.2370289750654,-13.1296106735408,-13.1074183015245
14.9999999999999,26.1136736394173,-10.4030418331138,-15.7106318063035
15.0499999999999,26.4137988508826,-8.51775818196079,-17.8960406689217
15.0999999999999,26.8832019854073,-7.36653096612724,-19.51667101928
15.1499999999999,27.0743735903342,-6.51040614971399,-20.5639674406202
15.1999999999999,26.7213137373072,-5.60161692579358,-21.1196968115136
15.2499999999999,25.6570070275567,-4.34857598433382,-21.3084310432229
15.2999999999999,24.182735996284,-2.70129944489763,-21.4814365513864
15.3499999999999,22.1681691004455,-0.190178148920129,-21.9779909515254
15.3999999999999,20.3186564234631,2.80056490345945,-23.1192213269225
15.4499999999999,19.6254235979189,5.08699789022245,-24.7124214881414
15.4999999999999,19.5794442051496,6.70822786525863,-26.2876720704082
15.5499999999999,19.4926968666916,7.96103064727781,-27.4537275139693
15.5999999999999,19.019269496924,8.96970092287226,-27.9889704197962
15.6499999999999,18.0854216652277,9.93465994218788,-28.0200816074156
15.6999999999999,16.53357908877,11.0798699787608,-27.6134490675307
15.7499999999999,14.2761039569224,12.7857163093207,-27.0618202662433
15.7999999999999,11.483575457663,15.3254614374831,-26.8090368951461
