"Time [ms]","Current(PhaseA) [A]","Current(PhaseB) [A]","Current(PhaseC) [A]"
0,0,0,0
0.05,5.17814955532447e-06,0.623688847166583,-0.623694025316138
0.1,9.51926211488478e-07,1.25063526763941,-1.25063621956562
0.15,-3.27429713234752e-06,1.87758168811223,-1.8775784138151
0.2,-7.50052047618352e-06,2.50452810858506,-2.50452060806458
0.25,-1.17267438200195e-05,3.13147452905788,-3.13146280231406
0.3,-1.59529671638555e-05,3.7584209495307,-3.75840499656354
0.35,0.0276484626781476,4.43056260705579,-4.45821106973394
0.4,0.661467188592432,5.72420704520394,-6.38567423379637
0.45,1.24646568455972,6.94173214304141,-8.18819782760113
0.5,1.44157316230093,8.0370180763802,-9.47859123868114
0.55,1.03480199939263,9.1356026365615,-10.1704046359541
0.6,0.0643655138419176,10.4656602391809,-10.5300257530228
0.65,-1.0608101599579,12.255045543671,-11.1942353837131
0.7,-2.01369268984382,14.5098656630754,-12.4961729732316
0.75,-2.75771074535709,16.8262359949928,-14.0685252496356
0.8,-3.5939452178438,18.8477432117584,-15.2537979939146
0.85,-4.80618408801555,20.4781013436619,-15.6719172556464
0.9,-6.57333248423274,21.9678374194947,-15.394504935262
0.95,-8.9303396800544,23.7661678344497,-14.8358281543953
1,-11.4015731433503,25.8424555988931,-14.4408824555428
1.05,-13.6856145171934,27.9630403685778,-14.2774258513844
1.1,-15.5653252085028,30.404340850293,-14.8390156417902
1.15,-17.3844394434784,32.5341208320683,-15.1496813885899
1.2,-19.4650587805143,33.9625741883936,-14.4975154078794
1.25,-22.2528780153403,35.0387679347254,-12.7858899193852
1.3,-25.5221885665623,36.0423165796841,-10.5201280131218
1.35,-28.8029879475444,37.2041403883059,-8.40115244076151
1.4,-31.6378701153252,38.536417077608,-6.8985469622828
1.45,-34.164679130834,39.7378350784406,-5.57315594760647
1.5,-36.3983199311019,40.6357005760043,-4.23738064490247
1.55,-38.257954251964,40.2756612662819,-2.0177070143179
1.6,-40.1302042410935,39.6868595378587,0.443344703234747
1.65,-42.3433325851945,37.90781883831,4.43551374688452
1.7,-45.0554300526309,36.1202365640521,8.93519348857876
1.75,-47.4199812266117,35.4626634027972,11.9573178238145
1.8,-49.6435917233601,35.4070282867478,14.2365634366124
1.85,-51.1069303459473,34.8241043487157,16.2828259972317
1.9,-51.8982319861729,33.4493880042803,18.4488439818926
1.95,-52.1326383375641,31.0346373058852,21.0980010316789
2,-51.8891878087665,27.2041840175516,24.6850037912149
2.05,-51.7494987290049,22.3456617470043,29.4038369820006
2.1,-52.1718908114489,18.4110495823905,33.7608412290583
2.15,-52.5571599089599,15.7371792437428,36.8199806652171
2.2,-52.5973506458365,13.7507077670266,38.8466428788099
2.25,-52.1001044196911,11.9454656619147,40.1546387577764
2.3,-50.5692057186193,9.74023471137304,40.8289710072462
2.35,-47.7534279086948,6.34777327237048,41.4056546363244
2.4,-43.9433773425969,0.995840368252183,42.9475369743448
2.45,-40.6851957645221,-4.75596010226496,45.441155866787
2.5,-38.9660713263865,-8.81874947623622,47.7848208026227
2.55,-37.6516853779602,-11.2164640656856,48.8681494436458
2.6,-35.9603282373929,-12.8596397167753,48.8199679541681
2.65,-33.6610713722629,-14.2941564556283,47.9552278278912
2.7,-30.5759408734682,-16.0125024354918,46.5884433089599
2.75,-26.1875516614656,-18.7740952429362,44.9616469044018
2.8,-20.949109602025,-22.7688808485,43.717990450525
2.85,-16.620488176191,-26.2446073898694,42.8650955660604
2.9,-13.8595972562784,-28.2224785521727,42.0820758084511
2.95,-11.9056135930538,-29.012825279952,40.9184388730058
3,-10.049488049623,-29.0617155861852,39.1112036358082
3.05,-7.80938752838366,-28.6526445399717,36.4620320683554
3.1,-4.75128077802946,-28.3572301366213,33.1085109146507
3.15,-0.415350686867898,-29.3385342701552,29.7538849570231
3.2,3.53975006953924,-30.8803151158081,27.3405650462689
3.25,5.83505002242424,-31.7133307211469,25.8782806987227
3.3,7.02700568316788,-31.5344167005958,24.5074110174279
3.35,7.83262758999074,-30.5040976084337,22.6714700184429
3.4,8.65795010010137,-28.8716549275579,20.2137048274565
3.45,9.93602652986331,-27.0215201185472,17.0854935886838
3.5,12.3713416092413,-25.6501863223616,13.2788447131202
3.55,14.9446151308385,-25.0771964368809,10.1325813060424
3.6,16.3220004342874,-24.7327212154198,8.41072078113237
3.65,16.7470068755464,-23.9119194734795,7.16491259793309
3.7,16.4489927105473,-22.3017347791377,5.85274206859036
3.75,15.7740553976445,-19.9508075253765,4.17675212773201
3.8,15.3040849007165,-17.2054791289847,1.90139422826819
3.85,16.1963316139749,-15.186168255995,-1.01016335797984
3.9,17.6768880037813,-14.5744731178612,-3.10241488592014
3.95,18.6321517182995,-14.2642773199727,-4.36787439832674
4,18.7936435365086,-13.6258323271576,-5.16781120935094
4.05,18.0330931785587,-12.3081400095157,-5.72495316904292
4.1,16.7870453945814,-10.3252870685321,-6.46175832604925
4.15,15.7689619484518,-7.77441484960538,-7.99454709884639
4.2,15.9937395364774,-5.76097458536627,-10.2327649511111
4.25,16.7461537873458,-4.68559378205744,-12.0605600052884
4.3,17.085210595641,-3.93874135618362,-13.1464692394573
4.35,16.5569445517694,-2.98048106359548,-13.5764634881739
4.4,15.3349767359905,-1.65437186773881,-13.6806048682517
4.45,13.4910701269355,0.303739520926585,-13.7948096478621
4.5,12.0239564859819,2.78491801884748,-14.8088745048295
4.55,11.96664109264,4.79402840024031,-16.7606694928803
4.6,12.3721126451255,6.34781374215096,-18.7199263872765
4.65,12.3445564361807,7.63212438323149,-19.9766808194122
4.7,11.6124139685485,8.85269479655603,-20.4651087651046
4.75,10.04272462696,10.2873220279666,-20.3300466549268
4.8,7.73822598066489,12.4965238195066,-20.2347498001715
4.85,5.81545979547817,15.0653511628996,-20.8808109583778
4.9,4.59332115974457,17.4312355745756,-22.0245567343201
4.95,3.69243010674579,19.3938533600328,-23.0862834667785
5,2.57850278464147,20.8655076461495,-23.444010430791
5.05,1.0547034296249,22.0000441100754,-23.0547475397003
5.1,-1.2792506723389,23.0915673236475,-21.8123166513086
5.15,-4.44134200257012,24.699404145268,-20.2580621426978
5.2,-7.14215636236156,26.6431747215364,-19.5010183591749
5.25,-9.29238953943479,28.8787405815871,-19.5863510421523
5.3,-11.1496038296911,30.9218783720392,-19.7722745423481
5.35,-12.8667962136936,32.293949407733,-19.4271531940393
5.4,-14.6836246828809,32.8967298568101,-18.2131051739292
5.44999999999999,-17.2558682641062,33.1553352596474,-15.8994669955412
5.49999999999999,-20.7547380178224,33.4992481009258,-12.7445100831034
5.54999999999999,-23.9853577798907,34.2450783979386,-10.259720618048
5.59999999999999,-26.5789275634822,35.285445066516,-8.70651750303387
5.64999999999999,-28.7173689848035,36.2062943810665,-7.48892539626308
5.69999999999999,-30.2849949943764,36.3970196954734,-6.11202470109696
5.74999999999999,-31.5906041084388,35.6916139163648,-4.101009807926
5.79999999999999,-33.0367713652733,34.0935189462469,-1.05674758097356
5.84999999999999,-34.9678708037417,31.7723289511068,3.19554185263487
5.89999999999999,-37.0962982223495,29.9575204726256,7.13877774972395
5.94999999999999,-39.4067265017534,29.7001065412513,9.70661996050205
5.99999999999999,-41.1880665142811,29.4790523210598,11.7090141932214
6.04999999999999,-42.1010549604122,28.6298498463293,13.4712051140829
6.09999999999999,-42.3416059795305,27.0566211873739,15.2849847921566
6.14999999999999,-42.1451049858469,24.4006784625885,17.7444265232584
6.19999999999999,-41.8524858665449,20.4672374574419,21.385248409103
6.24999999999999,-41.7983642819939,16.266391824444,25.5319724575499
6.29999999999999,-42.1804660598741,13.4227496269796,28.7577164328945
6.34999999999999,-42.4918601485166,11.5499506790697,30.9419094694469
6.39999999999999,-42.3423046326847,10.069247924192,32.2730567084927
6.44999999999999,-41.2710392255958,8.2892705344684,32.9817686911273
6.49999999999999,-39.3448234085178,5.83797098647872,33.506852422039
6.54999999999999,-36.4349842770734,1.71724212354662,34.7177421535269
6.59999999999999,-33.3509568612633,-3.32084879939648,36.6718056606598
6.64999999999999,-31.8083917835506,-7.11956022105712,38.9279520046077
6.69999999999999,-30.9621852679683,-9.44516789604193,40.4073531640102
6.74999999999999,-29.9109913173778,-11.0527936847754,40.9637850021532
6.79999999999999,-28.2741671615012,-12.3578564306435,40.6320235921446
6.84999999999999,-25.79845517151,-13.9189545261945,39.7174096977045
6.89999999999999,-22.2938887804564,-16.3649785218686,38.6588673023249
6.94999999999999,-17.6488774893768,-20.2218649762416,37.8707424656184
6.99999999999998,-13.9458954561096,-23.6027284475985,37.5486239037081
7.04999999999998,-11.6804128613213,-25.6723609573744,37.3527738186957
7.09999999999998,-10.0845477575113,-26.7825565239981,36.8671042815094
7.14999999999998,-8.50466956908552,-27.03981060752,35.5444801766055
7.19999999999998,-6.46965122594376,-27.0080039454052,33.4776551713489
7.24999999999998,-3.48620025412418,-27.1094978118074,30.5956980659315
7.29999999999998,0.901889338249898,-28.3933726027703,27.4914832645204
7.34999999999998,4.60042693574805,-30.2889232197908,25.6884962840427
7.39999999999998,6.77191469116436,-31.5909274913879,24.8190128002236
7.44999999999998,8.08360514843477,-31.9123055511669,23.8287004027322
7.49999999999998,9.03370023287072,-31.3845809478985,22.3508807150278
7.54999999999998,10.0537024247872,-30.2639525444056,20.2102501196184
7.59999999999998,11.7297491967852,-28.8922640053789,17.1625148085937
7.64999999999998,14.7538431952537,-27.9986713785721,13.2448281833183
7.69999999999998,17.5450477381473,-27.842085755578,10.2970380174307
7.74999999999998,19.2918292139221,-27.9080432513401,8.616214037418
7.79999999999998,20.0251662838823,-27.4738626988738,7.44869641499146
7.84999999999998,20.152868123619,-26.2914840648655,6.13861594124658
7.89999999999998,19.9465344481597,-24.3165275559884,4.3699931078287
7.94999999999998,19.9465746060507,-21.6776838249355,1.73110921888478
7.99999999999998,21.1831147809544,-19.3413943512212,-1.84172042973325
8.04999999999998,23.0350272274095,-18.6262983354601,-4.40872889194934
8.09999999999998,24.3290758138905,-18.3218606660418,-6.00721514784879
8.14999999999998,24.7476632978461,-17.7108866205908,-7.03677667725532
8.19999999999998,24.4015334163512,-16.5466095381668,-7.85492387818438
8.24999999999998,23.434443636011,-14.536784798768,-8.89765883724304
8.29999999999998,22.4810044759072,-11.6172556935951,-10.863748782312
8.34999999999998,22.4296070932812,-8.67389559182043,-13.7557115014608
8.39999999999998,23.0268885080882,-6.98374800821658,-16.0431404998716
8.44999999999998,23.5225991508125,-5.9929602160596,-17.5296389347529
8.49999999999998,23.2421510302177,-4.98323014424685,-18.2589208859709
8.54999999999998,22.1694903108965,-3.59859962582551,-18.570890685071
8.59999999999997,20.4033110345297,-1.63420713409237,-18.7691039004373
8.64999999999998,18.2123937104675,1.48167003758918,-19.6940637480567
8.69999999999997,17.1509192266659,4.34200594163355,-21.4929251682995
8.74999999999998,17.2486930035507,6.27049717795255,-23.5191901815033
8.79999999999997,17.2440526788744,7.69650458569017,-24.9405572645646
8.84999999999997,16.6718849374136,8.90932110629886,-25.5812060437124
8.89999999999997,15.2654081988424,10.2131544864053,-25.4785626852478
8.94999999999997,12.8421162250466,12.1564661416469,-24.9985823666934
8.99999999999997,9.88371834368154,15.0569945331754,-24.940712876857
9.04999999999997,7.77543315062609,17.8390064165692,-25.6144395671953
9.09999999999997,6.54918578341993,20.0298494042606,-26.5790351876805
9.14999999999997,5.54922327774707,21.5691598212313,-27.1183830989784
9.19999999999997,4.26032653679228,22.5947340115645,-26.8550605483568
9.24999999999997,2.42567464257088,23.3498575160092,-25.77553215858
9.29999999999997,-0.502122940605727,24.3607416662784,-23.8586187256727
9.34999999999997,-4.14290014204085,26.0906875075572,-21.9477873655163
9.39999999999997,-6.78845785740165,28.1596878179834,-21.3712299605817
9.44999999999997,-8.74817035953702,30.2310666493383,-21.4828962898012
9.49999999999997,-10.3811945558086,31.6116555476094,-21.2304609918008
9.54999999999997,-11.8953199366212,32.2596214573306,-20.3643015207093
9.59999999999997,-13.6747428414248,32.2846044545963,-18.6098616131714
9.64999999999997,-16.4106623219126,32.0979649687896,-15.687302646877
9.69999999999997,-19.9729022536024,32.2265357581337,-12.2536335045313
9.74999999999997,-22.9235934818167,32.9199162781817,-9.99632279636499
9.79999999999997,-25.188818674986,33.7456154935606,-8.55679681857465
9.84999999999997,-26.7705284724487,34.1507499977532,-7.38022152530455
9.89999999999997,-27.7928061610389,33.546206622793,-5.75340046175423
9.94999999999997,-28.7121214469089,32.436233525455,-3.72411207854606
9.99999999999997,-29.9563140298588,30.236742302517,-0.280428272658152
10.05,-31.869015028202,27.8691259825615,3.99988904564058
10.1,-34.0502379514623,26.8848145691084,7.16542338235389
10.15,-35.9878265402507,26.6789059383722,9.30892060187857
10.2,-37.1500627085126,26.1364228232692,11.0136398852434
10.25,-37.5566111937307,25.0297752662076,12.5268359275232
10.3,-37.3306561744276,23.0607146584882,14.2699415159394
10.35,-36.8935271219519,19.8962427294692,16.9972843924828
10.4,-36.6420574803961,15.7798887348216,20.8621687455744
10.45,-36.8816184820087,12.5779186348478,24.3036998471609
10.5,-37.3152325827218,10.6414870746739,26.6737455080479
10.55,-37.4256561923085,9.25019026299203,28.1754659293165
10.6,-36.725746967047,7.79533733291296,28.9304096341341
10.65,-35.2656969388735,5.8387377769104,29.4269591619631
10.7,-32.8167106835313,2.61747991779297,30.1992307657383
10.75,-29.9102786219268,-1.98669271051046,31.8969713324372
10.8,-28.2032587344095,-5.87136496512789,34.0746236995375
10.85,-27.5911691172662,-8.25423176321543,35.8454008804817
10.9,-26.8692598889288,-9.897984710477,36.7672445994058
10.95,-25.6238574973759,-11.170237728275,36.7940952256509
11,-23.7154429899865,-12.5215250277471,36.2369680177337
11.05,-20.6289505719471,-14.7323734690795,35.3613240410266
11.1,-16.4551493060489,-18.2239419590545,34.6790912651035
11.15,-12.8662694238387,-21.6901498207513,34.55641924459
11.2,-10.6693296849443,-24.0492289133892,34.7185585983336
11.25,-9.25274083927341,-25.3242010693683,34.5769419086417
11.3,-7.87568302424077,-25.8697482915525,33.7454313157933
11.35,-5.99580756135767,-26.0197522136459,32.0155597750036
11.4,-3.32462578427006,-26.2561072084657,29.5807329927358
11.45,0.898950895932147,-27.5197679000916,26.6208170041595
11.5,4.64812076258069,-29.5425154200893,24.8943946575086
11.55,6.91454999635264,-31.1851923494815,24.2706423531288
11.6,8.39078401902768,-31.9502472549321,23.5594632359044
11.65,9.4380147189084,-31.8478051010093,22.4097903821009
11.7,10.5200431069098,-31.0827265699305,20.5626834630209
11.75,12.3495928396736,-30.00313896457,17.6535461248965
11.8,15.4311075760223,-29.2588349205871,13.8277273445649
11.85,18.5128173182981,-29.2135378363827,10.7007205180845
11.9,20.5658446331771,-29.5054513180959,8.93960668491881
11.95,21.7066860189362,-29.4320235719662,7.72533755302992
12,22.0986178103103,-28.5499370138758,6.4513192035655
12.05,22.162924130068,-26.9286800263041,4.7657558962361
12.1,22.3390343955822,-24.4650252115899,2.12599081600776
12.15,23.5717048107809,-21.8367702395203,-1.73493457126062
12.2,25.5821678439279,-20.8735501564424,-4.70861768748554
12.25,27.1956073517133,-20.5743304700466,-6.62127688166666
12.3,27.959403791673,-20.0748023422529,-7.88460144942013
12.35,27.8738563447288,-19.0197270195333,-8.85412932519553
12.4,27.203286849387,-17.2244187979378,-9.97886805144915
12.45,26.317951116768,-14.2985210267212,-12.0194300900468
12.5,26.0201913328082,-10.8770104663593,-15.1431808664489
12.55,26.423213725109,-8.57039558901375,-17.8528181360952
12.6,26.9981241882328,-7.3030905630095,-19.6950336252233
12.65,27.0224858702042,-6.27223818971856,-20.7502476804856
12.7,26.1504414330383,-4.97333463309446,-21.1771067999438
12.75,24.5415504510097,-3.10315642457138,-21.4383940264383
12.7999999999999,22.2164631849358,-0.0644810673030602,-22.1519821176327
12.8499999999999,20.2427047166362,3.53345060158123,-23.7761553182174
12.8999999999999,19.9489001093733,5.92806013256244,-25.8769602419357
12.9499999999999,19.89553287034,7.62693389660126,-27.5224667669412
12.9999999999999,19.4089213102755,8.89849311621798,-28.3074144264935
13.0499999999999,18.2970633868193,10.0941912376612,-28.3912546244805
13.0999999999999,16.1770008830028,11.7067287643116,-27.8837296473144
13.1499999999999,13.0302574167362,14.3759429796359,-27.406200396372
13.1999999999999,10.0003607063792,17.6109471862898,-27.611307892669
13.2499999999999,8.18510894348447,20.1492479407786,-28.3343568842631
13.2999999999999,7.04208431563438,21.9764332059968,-29.0185175216312
13.3499999999999,5.9825683336503,23.0676136866232,-29.0501820202735
13.3999999999999,4.30916260075114,23.6529748471129,-27.9621374478641
13.4499999999999,2.06889343762218,24.2859539327479,-26.3548473703701
13.4999999999999,-1.58016807612119,25.6222440284425,-24.0420759523213
13.5499999999999,-5.04838872048296,27.5130119568975,-22.4646232364146
13.5999999999999,-7.32933688176235,29.6408876571138,-22.3115507753514
13.6499999999999,-9.05434063564293,31.2357841640327,-22.1814435283898
13.6999999999999,-10.4772891233643,32.0171531585488,-21.5398640351845
13.7499999999999,-11.880769694121,32.0873972303543,-20.2066275362333
13.7999999999999,-13.9419745734658,31.6772714073507,-17.7352968338849
13.8499999999999,-17.1410945090772,31.3881946392403,-14.247100130163
13.8999999999999,-20.5378346038445,31.6532819504923,-11.1154473466478
13.9499999999999,-23.1126103024301,32.3595740187739,-9.24696371634389
13.9999999999999,-24.9018815892627,32.9008261783216,-7.99894458905895
14.0499999999999,-25.9231921189084,32.6798017767689,-6.75660965786057
14.0999999999999,-26.6125196090228,31.7218896479764,-5.10937003895364
14.1499999999999,-27.3550116561224,29.8009294346862,-2.44591777856369
14.1999999999999,-28.8683627823366,27.2871201942286,1.58124258810801
14.2499999999999,-30.8925388133835,25.5290237225073,5.36351509087613
14.2999999999999,-32.9902110005547,25.1963978301333,7.79381317042134
14.3499999999999,-34.4440520022641,24.8726054324276,9.57144656983654
14.3999999999999,-35.0448616111744,24.0471984655652,10.9976631456092
14.4499999999999,-34.8925496348348,22.4767002615154,12.4158493733195
14.4999999999999,-34.3665808268502,19.9360077749053,14.4305730519449
14.5499999999999,-33.9250864071196,16.1060342105824,17.8190521965371
14.5999999999999,-33.9935705229795,12.569824376932,21.4237461460474
14.6499999999999,-34.453971129467,10.3857807175114,24.0681904119556
14.6999999999999,-34.7671221844322,8.97771207624922,25.7894101081829
14.7499999999999,-34.4685303370034,7.72820754055185,26.7403227964515
14.7999999999999,-33.2237963186359,6.03649582646376,27.1873004921722
14.8499999999999,-31.1820135522511,3.46965669885303,27.7123568533981
14.8999999999999,-28.4293231112086,-0.633992474864455,29.0633155860731
14.9499999999999,-26.3574496503971,-4.73746863086311,31.0949182812602
14.9999999999999,-25.7802385419362,-7.29895098405193,33.0791895259881
15.0499999999999,-25.2847109924912,-9.08722133133412,34.3719323238254
15.0999999999999,-24.3016084370052,-10.3801791711186,34.6817876081237
15.1499999999999,-22.7348450970342,-11.6482339681574,34.3830790651916
15.1999999999999,-20.207540727284,-13.41213887337,33.619679600654
15.2499999999999,-16.3488659516391,-16.5876788040197,32.9365447556588
15.2999999999999,-12.6449522112039,-20.1749939045512,32.8199461157551
15.3499999999999,-10.3865388044698,-22.7287073087687,33.1152461132384
15.3999999999999,-8.93627667144323,-24.3696380226361,33.3059146940794
15.4499999999999,-7.6709842427805,-25.1391200900292,32.8101043328097
15.4999999999999,-6.08863581183169,-25.4383269595094,31.5269627713411
15.5499999999999,-3.65965565423735,-25.6675536839367,29.3272093381741
15.5999999999999,0.255088763483662,-26.786232916838,26.5311441533543
15.6499999999999,4.19752323245267,-28.7366500424753,24.5391268100226
15.6999999999999,6.67173315564955,-30.6256911582258,23.9539580025762
15.7499999999999,8.33804170444551,-31.7783666371256,23.4403249326801
15.7999999999999,9.50044817446874,-31.961979544201,22.4615313697323
